0.929025424,0.938559322,0.945974576,0.949152542
0.938559322,0.945974576,0.949152542,0.954449153
0.945974576,0.949152542,0.954449153,0.955508475
0.949152542,0.954449153,0.955508475,0.960805085
0.954449153,0.955508475,0.960805085,0.965042373
0.955508475,0.960805085,0.965042373,0.970338983
0.960805085,0.965042373,0.970338983,0.972457627
0.965042373,0.970338983,0.972457627,0.983050847
0.970338983,0.972457627,0.983050847,0.978813559
0.972457627,0.983050847,0.978813559,0.979872881
0.983050847,0.978813559,0.979872881,0.983050847
0.978813559,0.979872881,0.983050847,0.981991525
0.979872881,0.983050847,0.981991525,0.980932203
0.983050847,0.981991525,0.980932203,0.980932203
0.981991525,0.980932203,0.980932203,0.984110169
0.980932203,0.980932203,0.984110169,0.984110169
0.980932203,0.984110169,0.984110169,0.979872881
0.984110169,0.984110169,0.979872881,0.983050847
0.984110169,0.979872881,0.983050847,0.980932203
0.979872881,0.983050847,0.980932203,0.976694915
0.983050847,0.980932203,0.976694915,0.972457627
0.980932203,0.976694915,0.972457627,0.962923729
0.976694915,0.972457627,0.962923729,0.952330508
0.972457627,0.962923729,0.952330508,0.943855932
0.962923729,0.952330508,0.943855932,0.935381356
0.952330508,0.943855932,0.935381356,0.930084746
0.943855932,0.935381356,0.930084746,0.918432203
0.935381356,0.930084746,0.918432203,0.907838983
0.930084746,0.918432203,0.907838983,0.896186441
0.918432203,0.907838983,0.896186441,0.882415254
0.907838983,0.896186441,0.882415254,0.873940678
0.896186441,0.882415254,0.873940678,0.854872881
0.882415254,0.873940678,0.854872881,0.840042373
0.873940678,0.854872881,0.840042373,0.831567797
0.854872881,0.840042373,0.831567797,0.818855932
0.840042373,0.831567797,0.818855932,0.8125
0.831567797,0.818855932,0.8125,0.802966102
0.818855932,0.8125,0.802966102,0.795550847
0.8125,0.802966102,0.795550847,0.789194915
0.802966102,0.795550847,0.789194915,0.780720339
0.795550847,0.789194915,0.780720339,0.774364407
0.789194915,0.780720339,0.774364407,0.765889831
0.780720339,0.774364407,0.765889831,0.761652542
0.774364407,0.765889831,0.761652542,0.759533898
0.765889831,0.761652542,0.759533898,0.75529661
0.761652542,0.759533898,0.75529661,0.753177966
0.759533898,0.75529661,0.753177966,0.75529661
0.75529661,0.753177966,0.75529661,0.758474576
0.753177966,0.75529661,0.758474576,0.75
0.75529661,0.758474576,0.75,0.753177966
0.758474576,0.75,0.753177966,0.752118644
0.75,0.753177966,0.752118644,0.757415254
0.753177966,0.752118644,0.757415254,0.754237288
0.752118644,0.757415254,0.754237288,0.75529661
0.757415254,0.754237288,0.75529661,0.763771186
0.754237288,0.75529661,0.763771186,0.75529661
0.75529661,0.763771186,0.75529661,0.754237288
0.763771186,0.75529661,0.754237288,0.75529661
0.75529661,0.754237288,0.75529661,0.757415254
0.754237288,0.75529661,0.757415254,0.75529661
0.75529661,0.757415254,0.75529661,0.754237288
0.757415254,0.75529661,0.754237288,0.759533898
0.75529661,0.754237288,0.759533898,0.758474576
0.754237288,0.759533898,0.758474576,0.758474576
0.759533898,0.758474576,0.758474576,0.756355932
0.758474576,0.758474576,0.756355932,0.75529661
0.758474576,0.756355932,0.75529661,0.754237288
0.756355932,0.75529661,0.754237288,0.759533898
0.75529661,0.754237288,0.759533898,0.752118644
0.754237288,0.759533898,0.752118644,0.756355932
0.759533898,0.752118644,0.756355932,0.752118644
0.752118644,0.756355932,0.752118644,0.75529661
0.756355932,0.752118644,0.75529661,0.751059322
0.752118644,0.75529661,0.751059322,0.754237288
0.75529661,0.751059322,0.754237288,0.748940678
0.751059322,0.754237288,0.748940678,0.75
0.754237288,0.748940678,0.75,0.748940678
0.748940678,0.75,0.748940678,0.74470339
0.75,0.748940678,0.74470339,0.748940678
0.748940678,0.74470339,0.748940678,0.743644068
0.74470339,0.748940678,0.743644068,0.743644068
0.748940678,0.743644068,0.743644068,0.74470339
0.743644068,0.743644068,0.74470339,0.741525424
0.743644068,0.74470339,0.741525424,0.73940678
0.74470339,0.741525424,0.73940678,0.737288136
0.741525424,0.73940678,0.737288136,0.741525424
0.73940678,0.737288136,0.741525424,0.737288136
0.737288136,0.741525424,0.737288136,0.736228814
0.741525424,0.737288136,0.736228814,0.736228814
0.737288136,0.736228814,0.736228814,0.737288136
0.736228814,0.736228814,0.737288136,0.735169492
0.736228814,0.737288136,0.735169492,0.731991525
0.737288136,0.735169492,0.731991525,0.735169492
0.735169492,0.731991525,0.735169492,0.736228814
0.731991525,0.735169492,0.736228814,0.735169492
0.735169492,0.736228814,0.735169492,0.733050847
0.736228814,0.735169492,0.733050847,0.73940678
0.735169492,0.733050847,0.73940678,0.74470339
0.733050847,0.73940678,0.74470339,0.74470339
0.73940678,0.74470339,0.74470339,0.752118644
0.74470339,0.74470339,0.752118644,0.753177966
0.74470339,0.752118644,0.753177966,0.758474576
0.752118644,0.753177966,0.758474576,0.76059322
0.753177966,0.758474576,0.76059322,0.759533898
0.758474576,0.76059322,0.759533898,0.761652542
0.76059322,0.759533898,0.761652542,0.762711864
0.759533898,0.761652542,0.762711864,0.76059322
0.761652542,0.762711864,0.76059322,0.765889831
0.762711864,0.76059322,0.765889831,0.75529661
0.76059322,0.765889831,0.75529661,0.753177966
0.765889831,0.75529661,0.753177966,0.74470339
0.75529661,0.753177966,0.74470339,0.735169492
0.753177966,0.74470339,0.735169492,0.735169492
0.74470339,0.735169492,0.735169492,0.730932203
0.735169492,0.735169492,0.730932203,0.729872881
0.735169492,0.730932203,0.729872881,0.730932203
0.730932203,0.729872881,0.730932203,0.726694915
0.729872881,0.730932203,0.726694915,0.723516949
0.730932203,0.726694915,0.723516949,0.722457627
0.726694915,0.723516949,0.722457627,0.720338983
0.723516949,0.722457627,0.720338983,0.721398305
0.722457627,0.720338983,0.721398305,0.722457627
0.720338983,0.721398305,0.722457627,0.722457627
0.721398305,0.722457627,0.722457627,0.723516949
0.722457627,0.722457627,0.723516949,0.724576271
0.722457627,0.723516949,0.724576271,0.725635593
0.723516949,0.724576271,0.725635593,0.728813559
0.724576271,0.725635593,0.728813559,0.726694915
0.725635593,0.728813559,0.726694915,0.727754237
0.728813559,0.726694915,0.727754237,0.724576271
0.726694915,0.727754237,0.724576271,0.727754237
0.727754237,0.724576271,0.727754237,0.725635593
0.724576271,0.727754237,0.725635593,0.722457627
0.727754237,0.725635593,0.722457627,0.725635593
0.725635593,0.722457627,0.725635593,0.730932203
0.722457627,0.725635593,0.730932203,0.728813559
0.725635593,0.730932203,0.728813559,0.727754237
0.730932203,0.728813559,0.727754237,0.727754237
0.728813559,0.727754237,0.727754237,0.726694915
0.727754237,0.727754237,0.726694915,0.725635593
0.727754237,0.726694915,0.725635593,0.726694915
0.726694915,0.725635593,0.726694915,0.734110169
0.725635593,0.726694915,0.734110169,0.727754237
0.726694915,0.734110169,0.727754237,0.727754237
0.734110169,0.727754237,0.727754237,0.729872881
0.727754237,0.727754237,0.729872881,0.727754237
0.727754237,0.729872881,0.727754237,0.728813559
0.729872881,0.727754237,0.728813559,0.727754237
0.727754237,0.728813559,0.727754237,0.725635593
0.728813559,0.727754237,0.725635593,0.725635593
0.727754237,0.725635593,0.725635593,0.720338983
0.725635593,0.725635593,0.720338983,0.730932203
0.725635593,0.720338983,0.730932203,0.738347458
0.720338983,0.730932203,0.738347458,0.716101695
0.730932203,0.738347458,0.716101695,0.626059322
0.738347458,0.716101695,0.626059322,0.490466102
0.716101695,0.626059322,0.490466102,0.354872881
0.626059322,0.490466102,0.354872881,0.219279661
0.490466102,0.354872881,0.219279661,0.093220339
0.354872881,0.219279661,0.093220339,0.047669492
0.219279661,0.093220339,0.047669492,0.031779661
0.093220339,0.047669492,0.031779661,0.027542373
0.047669492,0.031779661,0.027542373,0.016949153
0.031779661,0.027542373,0.016949153,0.013771186
0.027542373,0.016949153,0.013771186,0.027542373
0.016949153,0.013771186,0.027542373,0.05190678
0.013771186,0.027542373,0.05190678,0.092161017
0.027542373,0.05190678,0.092161017,0.137711864
0.05190678,0.092161017,0.137711864,0.173728814
0.092161017,0.137711864,0.173728814,0.197033898
0.137711864,0.173728814,0.197033898,0.223516949
0.173728814,0.197033898,0.223516949,0.265889831
0.197033898,0.223516949,0.265889831,0.329449153
0.223516949,0.265889831,0.329449153,0.406779661
0.265889831,0.329449153,0.406779661,0.48940678
0.329449153,0.406779661,0.48940678,0.547669492
0.406779661,0.48940678,0.547669492,0.594279661
0.48940678,0.547669492,0.594279661,0.631355932
0.547669492,0.594279661,0.631355932,0.664194915
0.594279661,0.631355932,0.664194915,0.705508475
0.631355932,0.664194915,0.705508475,0.751059322
0.664194915,0.705508475,0.751059322,0.781779661
0.705508475,0.751059322,0.781779661,0.804025424
0.751059322,0.781779661,0.804025424,0.819915254
0.781779661,0.804025424,0.819915254,0.820974576
0.804025424,0.819915254,0.820974576,0.816737288
0.819915254,0.820974576,0.816737288,0.818855932
0.820974576,0.816737288,0.818855932,0.824152542
0.816737288,0.818855932,0.824152542,0.825211864
0.818855932,0.824152542,0.825211864,0.832627119
0.824152542,0.825211864,0.832627119,0.832627119
0.825211864,0.832627119,0.832627119,0.830508475
0.832627119,0.832627119,0.830508475,0.834745763
0.832627119,0.830508475,0.834745763,0.834745763
0.830508475,0.834745763,0.834745763,0.837923729
0.834745763,0.834745763,0.837923729,0.837923729
0.834745763,0.837923729,0.837923729,0.841101695
0.837923729,0.837923729,0.841101695,0.838983051
0.837923729,0.841101695,0.838983051,0.847457627
0.841101695,0.838983051,0.847457627,0.848516949
0.838983051,0.847457627,0.848516949,0.850635593
0.847457627,0.848516949,0.850635593,0.853813559
0.848516949,0.850635593,0.853813559,0.853813559
0.850635593,0.853813559,0.853813559,0.853813559
0.853813559,0.853813559,0.853813559,0.854872881
0.853813559,0.853813559,0.854872881,0.855932203
0.853813559,0.854872881,0.855932203,0.859110169
0.854872881,0.855932203,0.859110169,0.863347458
0.855932203,0.859110169,0.863347458,0.870762712
0.859110169,0.863347458,0.870762712,0.868644068
0.863347458,0.870762712,0.868644068,0.872881356
0.870762712,0.868644068,0.872881356,0.871822034
0.868644068,0.872881356,0.871822034,0.879237288
0.872881356,0.871822034,0.879237288,0.878177966
0.871822034,0.879237288,0.878177966,0.886652542
0.879237288,0.878177966,0.886652542,0.891949153
0.878177966,0.886652542,0.891949153,0.895127119
0.886652542,0.891949153,0.895127119,0.899364407
0.891949153,0.895127119,0.899364407,0.907838983
0.895127119,0.899364407,0.907838983,0.908898305
0.899364407,0.907838983,0.908898305,0.914194915
0.907838983,0.908898305,0.914194915,0.916313559
0.908898305,0.914194915,0.916313559,0.922669492
0.914194915,0.916313559,0.922669492,0.925847458
0.916313559,0.922669492,0.925847458,0.929025424
0.922669492,0.925847458,0.929025424,0.940677966
0.925847458,0.929025424,0.940677966,0.939618644
0.929025424,0.940677966,0.939618644,0.945974576
0.940677966,0.939618644,0.945974576,0.954449153
0.939618644,0.945974576,0.954449153,0.954449153
0.945974576,0.954449153,0.954449153,0.956567797
0.954449153,0.954449153,0.956567797,0.963983051
0.954449153,0.956567797,0.963983051,0.969279661
0.956567797,0.963983051,0.969279661,0.971398305
0.963983051,0.969279661,0.971398305,0.973516949
0.969279661,0.971398305,0.973516949,0.981991525
0.971398305,0.973516949,0.981991525,0.985169492
0.973516949,0.981991525,0.985169492,0.984110169
0.981991525,0.985169492,0.984110169,0.983050847
0.985169492,0.984110169,0.983050847,0.981991525
0.984110169,0.983050847,0.981991525,0.985169492
0.983050847,0.981991525,0.985169492,0.987288136
0.981991525,0.985169492,0.987288136,0.986228814
0.985169492,0.987288136,0.986228814,0.986228814
0.987288136,0.986228814,0.986228814,0.983050847
0.986228814,0.986228814,0.983050847,0.986228814
0.986228814,0.983050847,0.986228814,0.980932203
0.983050847,0.986228814,0.980932203,0.977754237
0.986228814,0.980932203,0.977754237,0.970338983
0.980932203,0.977754237,0.970338983,0.958686441
0.977754237,0.970338983,0.958686441,0.954449153
0.970338983,0.958686441,0.954449153,0.954449153
0.958686441,0.954449153,0.954449153,0.941737288
0.954449153,0.954449153,0.941737288,0.931144068
0.954449153,0.941737288,0.931144068,0.919491525
0.941737288,0.931144068,0.919491525,0.911016949
0.931144068,0.919491525,0.911016949,0.902542373
0.919491525,0.911016949,0.902542373,0.888771186
0.911016949,0.902542373,0.888771186,0.881355932
0.902542373,0.888771186,0.881355932,0.867584746
0.888771186,0.881355932,0.867584746,0.854872881
0.881355932,0.867584746,0.854872881,0.843220339
0.867584746,0.854872881,0.843220339,0.831567797
0.854872881,0.843220339,0.831567797,0.824152542
0.843220339,0.831567797,0.824152542,0.822033898
0.831567797,0.824152542,0.822033898,0.804025424
0.824152542,0.822033898,0.804025424,0.800847458
0.822033898,0.804025424,0.800847458,0.791313559
0.804025424,0.800847458,0.791313559,0.789194915
0.800847458,0.791313559,0.789194915,0.783898305
0.791313559,0.789194915,0.783898305,0.777542373
0.789194915,0.783898305,0.777542373,0.777542373
0.783898305,0.777542373,0.777542373,0.775423729
0.777542373,0.777542373,0.775423729,0.774364407
0.777542373,0.775423729,0.774364407,0.770127119
0.775423729,0.774364407,0.770127119,0.771186441
0.774364407,0.770127119,0.771186441,0.771186441
0.770127119,0.771186441,0.771186441,0.775423729
0.771186441,0.771186441,0.775423729,0.768008475
0.771186441,0.775423729,0.768008475,0.770127119
0.775423729,0.768008475,0.770127119,0.770127119
0.768008475,0.770127119,0.770127119,0.776483051
0.770127119,0.770127119,0.776483051,0.771186441
0.770127119,0.776483051,0.771186441,0.774364407
0.776483051,0.771186441,0.774364407,0.775423729
0.771186441,0.774364407,0.775423729,0.774364407
0.774364407,0.775423729,0.774364407,0.773305085
0.775423729,0.774364407,0.773305085,0.777542373
0.774364407,0.773305085,0.777542373,0.774364407
0.773305085,0.777542373,0.774364407,0.775423729
0.777542373,0.774364407,0.775423729,0.774364407
0.774364407,0.775423729,0.774364407,0.777542373
0.775423729,0.774364407,0.777542373,0.773305085
0.774364407,0.777542373,0.773305085,0.773305085
0.777542373,0.773305085,0.773305085,0.771186441
0.773305085,0.773305085,0.771186441,0.770127119
0.773305085,0.771186441,0.770127119,0.766949153
0.771186441,0.770127119,0.766949153,0.769067797
0.770127119,0.766949153,0.769067797,0.768008475
0.766949153,0.769067797,0.768008475,0.764830508
0.769067797,0.768008475,0.764830508,0.766949153
0.768008475,0.764830508,0.766949153,0.768008475
0.764830508,0.766949153,0.768008475,0.763771186
0.766949153,0.768008475,0.763771186,0.761652542
0.768008475,0.763771186,0.761652542,0.761652542
0.763771186,0.761652542,0.761652542,0.763771186
0.761652542,0.761652542,0.763771186,0.76059322
0.761652542,0.763771186,0.76059322,0.759533898
0.763771186,0.76059322,0.759533898,0.761652542
0.76059322,0.759533898,0.761652542,0.754237288
0.759533898,0.761652542,0.754237288,0.754237288
0.761652542,0.754237288,0.754237288,0.747881356
0.754237288,0.754237288,0.747881356,0.752118644
0.754237288,0.747881356,0.752118644,0.75
0.747881356,0.752118644,0.75,0.747881356
0.752118644,0.75,0.747881356,0.75
0.75,0.747881356,0.75,0.752118644
0.747881356,0.75,0.752118644,0.752118644
0.75,0.752118644,0.752118644,0.754237288
0.752118644,0.752118644,0.754237288,0.751059322
0.752118644,0.754237288,0.751059322,0.759533898
0.754237288,0.751059322,0.759533898,0.763771186
0.751059322,0.759533898,0.763771186,0.758474576
0.759533898,0.763771186,0.758474576,0.766949153
0.763771186,0.758474576,0.766949153,0.769067797
0.758474576,0.766949153,0.769067797,0.772245763
0.766949153,0.769067797,0.772245763,0.775423729
0.769067797,0.772245763,0.775423729,0.776483051
0.772245763,0.775423729,0.776483051,0.779661017
0.775423729,0.776483051,0.779661017,0.771186441
0.776483051,0.779661017,0.771186441,0.772245763
0.779661017,0.771186441,0.772245763,0.766949153
0.771186441,0.772245763,0.766949153,0.762711864
0.772245763,0.766949153,0.762711864,0.757415254
0.766949153,0.762711864,0.757415254,0.752118644
0.762711864,0.757415254,0.752118644,0.752118644
0.757415254,0.752118644,0.752118644,0.752118644
0.752118644,0.752118644,0.752118644,0.748940678
0.752118644,0.752118644,0.748940678,0.743644068
0.752118644,0.748940678,0.743644068,0.738347458
0.748940678,0.743644068,0.738347458,0.734110169
0.743644068,0.738347458,0.734110169,0.737288136
0.738347458,0.734110169,0.737288136,0.733050847
0.734110169,0.737288136,0.733050847,0.736228814
0.737288136,0.733050847,0.736228814,0.735169492
0.733050847,0.736228814,0.735169492,0.733050847
0.736228814,0.735169492,0.733050847,0.734110169
0.735169492,0.733050847,0.734110169,0.735169492
0.733050847,0.734110169,0.735169492,0.735169492
0.734110169,0.735169492,0.735169492,0.729872881
0.735169492,0.735169492,0.729872881,0.728813559
0.735169492,0.729872881,0.728813559,0.728813559
0.729872881,0.728813559,0.728813559,0.727754237
0.728813559,0.728813559,0.727754237,0.733050847
0.728813559,0.727754237,0.733050847,0.734110169
0.727754237,0.733050847,0.734110169,0.729872881
0.733050847,0.734110169,0.729872881,0.731991525
0.734110169,0.729872881,0.731991525,0.729872881
0.729872881,0.731991525,0.729872881,0.728813559
0.731991525,0.729872881,0.728813559,0.731991525
0.729872881,0.728813559,0.731991525,0.730932203
0.728813559,0.731991525,0.730932203,0.729872881
0.731991525,0.730932203,0.729872881,0.734110169
0.730932203,0.729872881,0.734110169,0.729872881
0.729872881,0.734110169,0.729872881,0.730932203
0.734110169,0.729872881,0.730932203,0.730932203
0.729872881,0.730932203,0.730932203,0.730932203
0.730932203,0.730932203,0.730932203,0.729872881
0.730932203,0.730932203,0.729872881,0.729872881
0.730932203,0.729872881,0.729872881,0.729872881
0.729872881,0.729872881,0.729872881,0.734110169
0.729872881,0.729872881,0.734110169,0.730932203
0.729872881,0.734110169,0.730932203,0.726694915
0.734110169,0.730932203,0.726694915,0.728813559
0.730932203,0.726694915,0.728813559,0.724576271
0.726694915,0.728813559,0.724576271,0.733050847
0.728813559,0.724576271,0.733050847,0.735169492
0.724576271,0.733050847,0.735169492,0.722457627
0.733050847,0.735169492,0.722457627,0.643008475
0.735169492,0.722457627,0.643008475,0.507415254
0.722457627,0.643008475,0.507415254,0.371822034
0.643008475,0.507415254,0.371822034,0.236228814
0.507415254,0.371822034,0.236228814,0.121822034
0.371822034,0.236228814,0.121822034,0.074152542
0.236228814,0.121822034,0.074152542,0.056144068
0.121822034,0.074152542,0.056144068,0.041313559
0.074152542,0.056144068,0.041313559,0.032838983
0.056144068,0.041313559,0.032838983,0.041313559
0.041313559,0.032838983,0.041313559,0.044491525
0.032838983,0.041313559,0.044491525,0.0625
0.041313559,0.044491525,0.0625,0.102754237
0.044491525,0.0625,0.102754237,0.143008475
0.0625,0.102754237,0.143008475,0.184322034
0.102754237,0.143008475,0.184322034,0.203389831
0.143008475,0.184322034,0.203389831,0.229872881
0.184322034,0.203389831,0.229872881,0.258474576
0.203389831,0.229872881,0.258474576,0.319915254
0.229872881,0.258474576,0.319915254,0.395127119
0.258474576,0.319915254,0.395127119,0.479872881
0.319915254,0.395127119,0.479872881,0.542372881
0.395127119,0.479872881,0.542372881,0.590042373
0.479872881,0.542372881,0.590042373,0.631355932
0.542372881,0.590042373,0.631355932,0.663135593
0.590042373,0.631355932,0.663135593,0.699152542
0.631355932,0.663135593,0.699152542,0.741525424
0.663135593,0.699152542,0.741525424,0.778601695
0.699152542,0.741525424,0.778601695,0.800847458
0.741525424,0.778601695,0.800847458,0.8125
0.778601695,0.800847458,0.8125,0.816737288
0.800847458,0.8125,0.816737288,0.815677966
0.8125,0.816737288,0.815677966,0.820974576
0.816737288,0.815677966,0.820974576,0.815677966
0.815677966,0.820974576,0.815677966,0.820974576
0.820974576,0.815677966,0.820974576,0.819915254
0.815677966,0.820974576,0.819915254,0.825211864
0.820974576,0.819915254,0.825211864,0.82309322
0.819915254,0.825211864,0.82309322,0.830508475
0.825211864,0.82309322,0.830508475,0.830508475
0.82309322,0.830508475,0.830508475,0.831567797
0.830508475,0.830508475,0.831567797,0.833686441
0.830508475,0.831567797,0.833686441,0.833686441
0.831567797,0.833686441,0.833686441,0.834745763
0.833686441,0.833686441,0.834745763,0.840042373
0.833686441,0.834745763,0.840042373,0.838983051
0.834745763,0.840042373,0.838983051,0.841101695
0.840042373,0.838983051,0.841101695,0.845338983
0.838983051,0.841101695,0.845338983,0.847457627
0.841101695,0.845338983,0.847457627,0.850635593
0.845338983,0.847457627,0.850635593,0.858050847
0.847457627,0.850635593,0.858050847,0.858050847
0.850635593,0.858050847,0.858050847,0.850635593
0.858050847,0.858050847,0.850635593,0.856991525
0.858050847,0.850635593,0.856991525,0.858050847
0.850635593,0.856991525,0.858050847,0.858050847
0.856991525,0.858050847,0.858050847,0.863347458
0.858050847,0.858050847,0.863347458,0.872881356
0.858050847,0.863347458,0.872881356,0.873940678
0.863347458,0.872881356,0.873940678,0.876059322
0.872881356,0.873940678,0.876059322,0.882415254
0.873940678,0.876059322,0.882415254,0.888771186
0.876059322,0.882415254,0.888771186,0.886652542
0.882415254,0.888771186,0.886652542,0.890889831
0.888771186,0.886652542,0.890889831,0.897245763
0.886652542,0.890889831,0.897245763,0.899364407
0.890889831,0.897245763,0.899364407,0.906779661
0.897245763,0.899364407,0.906779661,0.913135593
0.899364407,0.906779661,0.913135593,0.909957627
0.906779661,0.913135593,0.909957627,0.917372881
0.913135593,0.909957627,0.917372881,0.923728814
0.909957627,0.917372881,0.923728814,0.925847458
0.917372881,0.923728814,0.925847458,0.930084746
0.923728814,0.925847458,0.930084746,0.931144068
0.925847458,0.930084746,0.931144068,0.936440678
0.930084746,0.931144068,0.936440678,0.94279661
0.931144068,0.936440678,0.94279661,0.949152542
0.936440678,0.94279661,0.949152542,0.953389831
0.94279661,0.949152542,0.953389831,0.955508475
0.949152542,0.953389831,0.955508475,0.958686441
0.953389831,0.955508475,0.958686441,0.957627119
0.955508475,0.958686441,0.957627119,0.962923729
0.958686441,0.957627119,0.962923729,0.970338983
0.957627119,0.962923729,0.970338983,0.970338983
0.962923729,0.970338983,0.970338983,0.974576271
0.970338983,0.970338983,0.974576271,0.975635593
0.970338983,0.974576271,0.975635593,0.973516949
0.974576271,0.975635593,0.973516949,0.979872881
0.975635593,0.973516949,0.979872881,0.973516949
0.973516949,0.979872881,0.973516949,0.974576271
0.979872881,0.973516949,0.974576271,0.972457627
0.973516949,0.974576271,0.972457627,0.973516949
0.974576271,0.972457627,0.973516949,0.968220339
0.972457627,0.973516949,0.968220339,0.968220339
0.973516949,0.968220339,0.968220339,0.966101695
0.968220339,0.968220339,0.966101695,0.956567797
0.968220339,0.966101695,0.956567797,0.952330508
0.966101695,0.956567797,0.952330508,0.945974576
0.956567797,0.952330508,0.945974576,0.933262712
0.952330508,0.945974576,0.933262712,0.921610169
0.945974576,0.933262712,0.921610169,0.908898305
0.933262712,0.921610169,0.908898305,0.902542373
0.921610169,0.908898305,0.902542373,0.891949153
0.908898305,0.902542373,0.891949153,0.884533898
0.902542373,0.891949153,0.884533898,0.872881356
0.891949153,0.884533898,0.872881356,0.858050847
0.884533898,0.872881356,0.858050847,0.842161017
0.872881356,0.858050847,0.842161017,0.835805085
0.858050847,0.842161017,0.835805085,0.826271186
0.842161017,0.835805085,0.826271186,0.815677966
0.835805085,0.826271186,0.815677966,0.804025424
0.826271186,0.815677966,0.804025424,0.799788136
0.815677966,0.804025424,0.799788136,0.788135593
0.804025424,0.799788136,0.788135593,0.789194915
0.799788136,0.788135593,0.789194915,0.786016949
0.788135593,0.789194915,0.786016949,0.778601695
0.789194915,0.786016949,0.778601695,0.772245763
0.786016949,0.778601695,0.772245763,0.771186441
0.778601695,0.772245763,0.771186441,0.768008475
0.772245763,0.771186441,0.768008475,0.769067797
0.771186441,0.768008475,0.769067797,0.766949153
0.768008475,0.769067797,0.766949153,0.763771186
0.769067797,0.766949153,0.763771186,0.762711864
0.766949153,0.763771186,0.762711864,0.765889831
0.763771186,0.762711864,0.765889831,0.762711864
0.762711864,0.765889831,0.762711864,0.763771186
0.765889831,0.762711864,0.763771186,0.765889831
0.762711864,0.763771186,0.765889831,0.766949153
0.763771186,0.765889831,0.766949153,0.769067797
0.765889831,0.766949153,0.769067797,0.764830508
0.766949153,0.769067797,0.764830508,0.766949153
0.769067797,0.764830508,0.766949153,0.769067797
0.764830508,0.766949153,0.769067797,0.768008475
0.766949153,0.769067797,0.768008475,0.770127119
0.769067797,0.768008475,0.770127119,0.766949153
0.768008475,0.770127119,0.766949153,0.763771186
0.770127119,0.766949153,0.763771186,0.765889831
0.766949153,0.763771186,0.765889831,0.771186441
0.763771186,0.765889831,0.771186441,0.770127119
0.765889831,0.771186441,0.770127119,0.762711864
0.771186441,0.770127119,0.762711864,0.766949153
0.770127119,0.762711864,0.766949153,0.769067797
0.762711864,0.766949153,0.769067797,0.762711864
0.766949153,0.769067797,0.762711864,0.762711864
0.769067797,0.762711864,0.762711864,0.759533898
0.762711864,0.762711864,0.759533898,0.758474576
0.762711864,0.759533898,0.758474576,0.759533898
0.759533898,0.758474576,0.759533898,0.758474576
0.758474576,0.759533898,0.758474576,0.758474576
0.759533898,0.758474576,0.758474576,0.757415254
0.758474576,0.758474576,0.757415254,0.757415254
0.758474576,0.757415254,0.757415254,0.754237288
0.757415254,0.757415254,0.754237288,0.752118644
0.757415254,0.754237288,0.752118644,0.75
0.754237288,0.752118644,0.75,0.751059322
0.752118644,0.75,0.751059322,0.748940678
0.75,0.751059322,0.748940678,0.745762712
0.751059322,0.748940678,0.745762712,0.747881356
0.748940678,0.745762712,0.747881356,0.748940678
0.745762712,0.747881356,0.748940678,0.747881356
0.747881356,0.748940678,0.747881356,0.745762712
0.748940678,0.747881356,0.745762712,0.743644068
0.747881356,0.745762712,0.743644068,0.740466102
0.745762712,0.743644068,0.740466102,0.741525424
0.743644068,0.740466102,0.741525424,0.741525424
0.740466102,0.741525424,0.741525424,0.742584746
0.741525424,0.741525424,0.742584746,0.738347458
0.741525424,0.742584746,0.738347458,0.73940678
0.742584746,0.738347458,0.73940678,0.745762712
0.738347458,0.73940678,0.745762712,0.742584746
0.73940678,0.745762712,0.742584746,0.73940678
0.745762712,0.742584746,0.73940678,0.738347458
0.742584746,0.73940678,0.738347458,0.743644068
0.73940678,0.738347458,0.743644068,0.746822034
0.738347458,0.743644068,0.746822034,0.751059322
0.743644068,0.746822034,0.751059322,0.756355932
0.746822034,0.751059322,0.756355932,0.756355932
0.751059322,0.756355932,0.756355932,0.757415254
0.756355932,0.756355932,0.757415254,0.766949153
0.756355932,0.757415254,0.766949153,0.768008475
0.757415254,0.766949153,0.768008475,0.769067797
0.766949153,0.768008475,0.769067797,0.765889831
0.768008475,0.769067797,0.765889831,0.763771186
0.769067797,0.765889831,0.763771186,0.763771186
0.765889831,0.763771186,0.763771186,0.762711864
0.763771186,0.763771186,0.762711864,0.757415254
0.763771186,0.762711864,0.757415254,0.748940678
0.762711864,0.757415254,0.748940678,0.74470339
0.757415254,0.748940678,0.74470339,0.738347458
0.748940678,0.74470339,0.738347458,0.736228814
0.74470339,0.738347458,0.736228814,0.736228814
0.738347458,0.736228814,0.736228814,0.731991525
0.736228814,0.736228814,0.731991525,0.730932203
0.736228814,0.731991525,0.730932203,0.725635593
0.731991525,0.730932203,0.725635593,0.728813559
0.730932203,0.725635593,0.728813559,0.727754237
0.725635593,0.728813559,0.727754237,0.722457627
0.728813559,0.727754237,0.722457627,0.728813559
0.727754237,0.722457627,0.728813559,0.730932203
0.722457627,0.728813559,0.730932203,0.733050847
0.728813559,0.730932203,0.733050847,0.733050847
0.730932203,0.733050847,0.733050847,0.733050847
0.733050847,0.733050847,0.733050847,0.730932203
0.733050847,0.733050847,0.730932203,0.733050847
0.733050847,0.730932203,0.733050847,0.727754237
0.730932203,0.733050847,0.727754237,0.727754237
0.733050847,0.727754237,0.727754237,0.723516949
0.727754237,0.727754237,0.723516949,0.730932203
0.727754237,0.723516949,0.730932203,0.724576271
0.723516949,0.730932203,0.724576271,0.728813559
0.730932203,0.724576271,0.728813559,0.733050847
0.724576271,0.728813559,0.733050847,0.729872881
0.728813559,0.733050847,0.729872881,0.729872881
0.733050847,0.729872881,0.729872881,0.727754237
0.729872881,0.729872881,0.727754237,0.731991525
0.729872881,0.727754237,0.731991525,0.725635593
0.727754237,0.731991525,0.725635593,0.726694915
0.731991525,0.725635593,0.726694915,0.725635593
0.725635593,0.726694915,0.725635593,0.725635593
0.726694915,0.725635593,0.725635593,0.727754237
0.725635593,0.725635593,0.727754237,0.727754237
0.725635593,0.727754237,0.727754237,0.726694915
0.727754237,0.727754237,0.726694915,0.728813559
0.727754237,0.726694915,0.728813559,0.726694915
0.726694915,0.728813559,0.726694915,0.727754237
0.728813559,0.726694915,0.727754237,0.725635593
0.726694915,0.727754237,0.725635593,0.720338983
0.727754237,0.725635593,0.720338983,0.725635593
0.725635593,0.720338983,0.725635593,0.735169492
0.720338983,0.725635593,0.735169492,0.733050847
0.725635593,0.735169492,0.733050847,0.683262712
0.735169492,0.733050847,0.683262712,0.566737288
0.733050847,0.683262712,0.566737288,0.431144068
0.683262712,0.566737288,0.431144068,0.295550847
0.566737288,0.431144068,0.295550847,0.159957627
0.431144068,0.295550847,0.159957627,0.104872881
0.295550847,0.159957627,0.104872881,0.087923729
0.159957627,0.104872881,0.087923729,0.069915254
0.104872881,0.087923729,0.069915254,0.065677966
0.087923729,0.069915254,0.065677966,0.056144068
0.069915254,0.065677966,0.056144068,0.060381356
0.065677966,0.056144068,0.060381356,0.077330508
0.056144068,0.060381356,0.077330508,0.103813559
0.060381356,0.077330508,0.103813559,0.140889831
0.077330508,0.103813559,0.140889831,0.177966102
0.103813559,0.140889831,0.177966102,0.201271186
0.140889831,0.177966102,0.201271186,0.218220339
0.177966102,0.201271186,0.218220339,0.242584746
0.201271186,0.218220339,0.242584746,0.289194915
0.218220339,0.242584746,0.289194915,0.358050847
0.242584746,0.289194915,0.358050847,0.434322034
0.289194915,0.358050847,0.434322034,0.51059322
0.358050847,0.434322034,0.51059322,0.565677966
0.434322034,0.51059322,0.565677966,0.603813559
0.51059322,0.565677966,0.603813559,0.639830508
0.565677966,0.603813559,0.639830508,0.669491525
0.603813559,0.639830508,0.669491525,0.705508475
0.639830508,0.669491525,0.705508475,0.746822034
0.669491525,0.705508475,0.746822034,0.777542373
0.705508475,0.746822034,0.777542373,0.797669492
0.746822034,0.777542373,0.797669492,0.810381356
0.777542373,0.797669492,0.810381356,0.811440678
0.797669492,0.810381356,0.811440678,0.8125
0.810381356,0.811440678,0.8125,0.814618644
0.811440678,0.8125,0.814618644,0.813559322
0.8125,0.814618644,0.813559322,0.814618644
0.814618644,0.813559322,0.814618644,0.819915254
0.813559322,0.814618644,0.819915254,0.818855932
0.814618644,0.819915254,0.818855932,0.825211864
0.819915254,0.818855932,0.825211864,0.830508475
0.818855932,0.825211864,0.830508475,0.830508475
0.825211864,0.830508475,0.830508475,0.828389831
0.830508475,0.830508475,0.828389831,0.831567797
0.830508475,0.828389831,0.831567797,0.831567797
0.828389831,0.831567797,0.831567797,0.832627119
0.831567797,0.831567797,0.832627119,0.832627119
0.831567797,0.832627119,0.832627119,0.835805085
0.832627119,0.832627119,0.835805085,0.838983051
0.832627119,0.835805085,0.838983051,0.842161017
0.835805085,0.838983051,0.842161017,0.842161017
0.838983051,0.842161017,0.842161017,0.846398305
0.842161017,0.842161017,0.846398305,0.848516949
0.842161017,0.846398305,0.848516949,0.850635593
0.846398305,0.848516949,0.850635593,0.848516949
0.848516949,0.850635593,0.848516949,0.853813559
0.850635593,0.848516949,0.853813559,0.859110169
0.848516949,0.853813559,0.859110169,0.856991525
0.853813559,0.859110169,0.856991525,0.863347458
0.859110169,0.856991525,0.863347458,0.872881356
0.856991525,0.863347458,0.872881356,0.867584746
0.863347458,0.872881356,0.867584746,0.875
0.872881356,0.867584746,0.875,0.875
0.867584746,0.875,0.875,0.879237288
0.875,0.875,0.879237288,0.881355932
0.875,0.879237288,0.881355932,0.890889831
0.879237288,0.881355932,0.890889831,0.893008475
0.881355932,0.890889831,0.893008475,0.896186441
0.890889831,0.893008475,0.896186441,0.897245763
0.893008475,0.896186441,0.897245763,0.903601695
0.896186441,0.897245763,0.903601695,0.907838983
0.897245763,0.903601695,0.907838983,0.906779661
0.903601695,0.907838983,0.906779661,0.917372881
0.907838983,0.906779661,0.917372881,0.917372881
0.906779661,0.917372881,0.917372881,0.923728814
0.917372881,0.917372881,0.923728814,0.929025424
0.917372881,0.923728814,0.929025424,0.930084746
0.923728814,0.929025424,0.930084746,0.939618644
0.929025424,0.930084746,0.939618644,0.941737288
0.930084746,0.939618644,0.941737288,0.94279661
0.939618644,0.941737288,0.94279661,0.947033898
0.941737288,0.94279661,0.947033898,0.950211864
0.94279661,0.947033898,0.950211864,0.953389831
0.947033898,0.950211864,0.953389831,0.959745763
0.950211864,0.953389831,0.959745763,0.961864407
0.953389831,0.959745763,0.961864407,0.963983051
0.959745763,0.961864407,0.963983051,0.962923729
0.961864407,0.963983051,0.962923729,0.965042373
0.963983051,0.962923729,0.965042373,0.959745763
0.962923729,0.965042373,0.959745763,0.967161017
0.965042373,0.959745763,0.967161017,0.961864407
0.959745763,0.967161017,0.961864407,0.961864407
0.967161017,0.961864407,0.961864407,0.959745763
0.961864407,0.961864407,0.959745763,0.959745763
0.961864407,0.959745763,0.959745763,0.956567797
0.959745763,0.959745763,0.956567797,0.953389831
0.959745763,0.956567797,0.953389831,0.945974576
0.956567797,0.953389831,0.945974576,0.9375
0.953389831,0.945974576,0.9375,0.933262712
0.945974576,0.9375,0.933262712,0.929025424
0.9375,0.933262712,0.929025424,0.918432203
0.933262712,0.929025424,0.918432203,0.911016949
0.929025424,0.918432203,0.911016949,0.903601695
0.918432203,0.911016949,0.903601695,0.890889831
0.911016949,0.903601695,0.890889831,0.88029661
0.903601695,0.890889831,0.88029661,0.871822034
0.890889831,0.88029661,0.871822034,0.858050847
0.88029661,0.871822034,0.858050847,0.845338983
0.871822034,0.858050847,0.845338983,0.837923729
0.858050847,0.845338983,0.837923729,0.825211864
0.845338983,0.837923729,0.825211864,0.815677966
0.837923729,0.825211864,0.815677966,0.80720339
0.825211864,0.815677966,0.80720339,0.799788136
0.815677966,0.80720339,0.799788136,0.794491525
0.80720339,0.799788136,0.794491525,0.781779661
0.799788136,0.794491525,0.781779661,0.781779661
0.794491525,0.781779661,0.781779661,0.777542373
0.781779661,0.781779661,0.777542373,0.773305085
0.781779661,0.777542373,0.773305085,0.769067797
0.777542373,0.773305085,0.769067797,0.770127119
0.773305085,0.769067797,0.770127119,0.768008475
0.769067797,0.770127119,0.768008475,0.769067797
0.770127119,0.768008475,0.769067797,0.763771186
0.768008475,0.769067797,0.763771186,0.762711864
0.769067797,0.763771186,0.762711864,0.76059322
0.763771186,0.762711864,0.76059322,0.759533898
0.762711864,0.76059322,0.759533898,0.757415254
0.76059322,0.759533898,0.757415254,0.762711864
0.759533898,0.757415254,0.762711864,0.763771186
0.757415254,0.762711864,0.763771186,0.762711864
0.762711864,0.763771186,0.762711864,0.768008475
0.763771186,0.762711864,0.768008475,0.769067797
0.762711864,0.768008475,0.769067797,0.763771186
0.768008475,0.769067797,0.763771186,0.766949153
0.769067797,0.763771186,0.766949153,0.765889831
0.763771186,0.766949153,0.765889831,0.763771186
0.766949153,0.765889831,0.763771186,0.762711864
0.765889831,0.763771186,0.762711864,0.765889831
0.763771186,0.762711864,0.765889831,0.770127119
0.762711864,0.765889831,0.770127119,0.761652542
0.765889831,0.770127119,0.761652542,0.763771186
0.770127119,0.761652542,0.763771186,0.763771186
0.761652542,0.763771186,0.763771186,0.76059322
0.763771186,0.763771186,0.76059322,0.761652542
0.763771186,0.76059322,0.761652542,0.762711864
0.76059322,0.761652542,0.762711864,0.762711864
0.761652542,0.762711864,0.762711864,0.76059322
0.762711864,0.762711864,0.76059322,0.765889831
0.762711864,0.76059322,0.765889831,0.759533898
0.76059322,0.765889831,0.759533898,0.76059322
0.765889831,0.759533898,0.76059322,0.757415254
0.759533898,0.76059322,0.757415254,0.756355932
0.76059322,0.757415254,0.756355932,0.757415254
0.757415254,0.756355932,0.757415254,0.754237288
0.756355932,0.757415254,0.754237288,0.752118644
0.757415254,0.754237288,0.752118644,0.752118644
0.754237288,0.752118644,0.752118644,0.754237288
0.752118644,0.752118644,0.754237288,0.751059322
0.752118644,0.754237288,0.751059322,0.75
0.754237288,0.751059322,0.75,0.753177966
0.751059322,0.75,0.753177966,0.752118644
0.75,0.753177966,0.752118644,0.747881356
0.753177966,0.752118644,0.747881356,0.747881356
0.752118644,0.747881356,0.747881356,0.745762712
0.747881356,0.747881356,0.745762712,0.743644068
0.747881356,0.745762712,0.743644068,0.745762712
0.745762712,0.743644068,0.745762712,0.75
0.743644068,0.745762712,0.75,0.747881356
0.745762712,0.75,0.747881356,0.742584746
0.75,0.747881356,0.742584746,0.743644068
0.747881356,0.742584746,0.743644068,0.743644068
0.742584746,0.743644068,0.743644068,0.742584746
0.743644068,0.743644068,0.742584746,0.748940678
0.743644068,0.742584746,0.748940678,0.75
0.742584746,0.748940678,0.75,0.756355932
0.748940678,0.75,0.756355932,0.759533898
0.75,0.756355932,0.759533898,0.757415254
0.756355932,0.759533898,0.757415254,0.765889831
0.759533898,0.757415254,0.765889831,0.771186441
0.757415254,0.765889831,0.771186441,0.765889831
0.765889831,0.771186441,0.765889831,0.766949153
0.771186441,0.765889831,0.766949153,0.766949153
0.765889831,0.766949153,0.766949153,0.766949153
0.766949153,0.766949153,0.766949153,0.766949153
0.766949153,0.766949153,0.766949153,0.765889831
0.766949153,0.766949153,0.765889831,0.763771186
0.766949153,0.765889831,0.763771186,0.757415254
0.765889831,0.763771186,0.757415254,0.75
0.763771186,0.757415254,0.75,0.74470339
0.757415254,0.75,0.74470339,0.740466102
0.75,0.74470339,0.740466102,0.745762712
0.74470339,0.740466102,0.745762712,0.736228814
0.740466102,0.745762712,0.736228814,0.738347458
0.745762712,0.736228814,0.738347458,0.733050847
0.736228814,0.738347458,0.733050847,0.735169492
0.738347458,0.733050847,0.735169492,0.730932203
0.733050847,0.735169492,0.730932203,0.733050847
0.735169492,0.730932203,0.733050847,0.733050847
0.730932203,0.733050847,0.733050847,0.730932203
0.733050847,0.733050847,0.730932203,0.737288136
0.733050847,0.730932203,0.737288136,0.737288136
0.730932203,0.737288136,0.737288136,0.737288136
0.737288136,0.737288136,0.737288136,0.740466102
0.737288136,0.737288136,0.740466102,0.738347458
0.737288136,0.740466102,0.738347458,0.737288136
0.740466102,0.738347458,0.737288136,0.737288136
0.738347458,0.737288136,0.737288136,0.735169492
0.737288136,0.737288136,0.735169492,0.734110169
0.737288136,0.735169492,0.734110169,0.735169492
0.735169492,0.734110169,0.735169492,0.735169492
0.734110169,0.735169492,0.735169492,0.737288136
0.735169492,0.735169492,0.737288136,0.737288136
0.735169492,0.737288136,0.737288136,0.736228814
0.737288136,0.737288136,0.736228814,0.737288136
0.737288136,0.736228814,0.737288136,0.734110169
0.736228814,0.737288136,0.734110169,0.733050847
0.737288136,0.734110169,0.733050847,0.734110169
0.734110169,0.733050847,0.734110169,0.737288136
0.733050847,0.734110169,0.737288136,0.735169492
0.734110169,0.737288136,0.735169492,0.735169492
0.737288136,0.735169492,0.735169492,0.740466102
0.735169492,0.735169492,0.740466102,0.738347458
0.735169492,0.740466102,0.738347458,0.738347458
0.740466102,0.738347458,0.738347458,0.738347458
0.738347458,0.738347458,0.738347458,0.736228814
0.738347458,0.738347458,0.736228814,0.730932203
0.738347458,0.736228814,0.730932203,0.728813559
0.736228814,0.730932203,0.728813559,0.733050847
0.730932203,0.728813559,0.733050847,0.742584746
0.728813559,0.733050847,0.742584746,0.746822034
0.733050847,0.742584746,0.746822034,0.709745763
0.742584746,0.746822034,0.709745763,0.613347458
0.746822034,0.709745763,0.613347458,0.477754237
0.709745763,0.613347458,0.477754237,0.342161017
0.613347458,0.477754237,0.342161017,0.206567797
0.477754237,0.342161017,0.206567797,0.133474576
0.342161017,0.206567797,0.133474576,0.103813559
0.206567797,0.133474576,0.103813559,0.088983051
0.133474576,0.103813559,0.088983051,0.085805085
0.103813559,0.088983051,0.085805085,0.080508475
0.088983051,0.085805085,0.080508475,0.081567797
0.085805085,0.080508475,0.081567797,0.091101695
0.080508475,0.081567797,0.091101695,0.122881356
0.081567797,0.091101695,0.122881356,0.158898305
0.091101695,0.122881356,0.158898305,0.200211864
0.122881356,0.158898305,0.200211864,0.236228814
0.158898305,0.200211864,0.236228814,0.254237288
0.200211864,0.236228814,0.254237288,0.278601695
0.236228814,0.254237288,0.278601695,0.31779661
0.254237288,0.278601695,0.31779661,0.383474576
0.278601695,0.31779661,0.383474576,0.457627119
0.31779661,0.383474576,0.457627119,0.522245763
0.383474576,0.457627119,0.522245763,0.578389831
0.457627119,0.522245763,0.578389831,0.618644068
0.522245763,0.578389831,0.618644068,0.649364407
0.578389831,0.618644068,0.649364407,0.67690678
0.618644068,0.649364407,0.67690678,0.713983051
0.649364407,0.67690678,0.713983051,0.75
0.67690678,0.713983051,0.75,0.779661017
0.713983051,0.75,0.779661017,0.805084746
0.75,0.779661017,0.805084746,0.8125
0.779661017,0.805084746,0.8125,0.81779661
0.805084746,0.8125,0.81779661,0.8125
0.8125,0.81779661,0.8125,0.813559322
0.81779661,0.8125,0.813559322,0.809322034
0.8125,0.813559322,0.809322034,0.818855932
0.813559322,0.809322034,0.818855932,0.820974576
0.809322034,0.818855932,0.820974576,0.819915254
0.818855932,0.820974576,0.819915254,0.82309322
0.820974576,0.819915254,0.82309322,0.82309322
0.819915254,0.82309322,0.82309322,0.828389831
0.82309322,0.82309322,0.828389831,0.824152542
0.82309322,0.828389831,0.824152542,0.825211864
0.828389831,0.824152542,0.825211864,0.824152542
0.824152542,0.825211864,0.824152542,0.829449153
0.825211864,0.824152542,0.829449153,0.829449153
0.824152542,0.829449153,0.829449153,0.831567797
0.829449153,0.829449153,0.831567797,0.836864407
0.829449153,0.831567797,0.836864407,0.837923729
0.831567797,0.836864407,0.837923729,0.834745763
0.836864407,0.837923729,0.834745763,0.837923729
0.837923729,0.834745763,0.837923729,0.846398305
0.834745763,0.837923729,0.846398305,0.844279661
0.837923729,0.846398305,0.844279661,0.847457627
0.846398305,0.844279661,0.847457627,0.850635593
0.844279661,0.847457627,0.850635593,0.854872881
0.847457627,0.850635593,0.854872881,0.858050847
0.850635593,0.854872881,0.858050847,0.862288136
0.854872881,0.858050847,0.862288136,0.856991525
0.858050847,0.862288136,0.856991525,0.862288136
0.862288136,0.856991525,0.862288136,0.865466102
0.856991525,0.862288136,0.865466102,0.865466102
0.862288136,0.865466102,0.865466102,0.871822034
0.865466102,0.865466102,0.871822034,0.881355932
0.865466102,0.871822034,0.881355932,0.882415254
0.871822034,0.881355932,0.882415254,0.88029661
0.881355932,0.882415254,0.88029661,0.894067797
0.882415254,0.88029661,0.894067797,0.890889831
0.88029661,0.894067797,0.890889831,0.891949153
0.894067797,0.890889831,0.891949153,0.898305085
0.890889831,0.891949153,0.898305085,0.902542373
0.891949153,0.898305085,0.902542373,0.902542373
0.898305085,0.902542373,0.902542373,0.908898305
0.902542373,0.902542373,0.908898305,0.915254237
0.902542373,0.908898305,0.915254237,0.922669492
0.908898305,0.915254237,0.922669492,0.927966102
0.915254237,0.922669492,0.927966102,0.931144068
0.922669492,0.927966102,0.931144068,0.931144068
0.927966102,0.931144068,0.931144068,0.933262712
0.931144068,0.931144068,0.933262712,0.935381356
0.931144068,0.933262712,0.935381356,0.941737288
0.933262712,0.935381356,0.941737288,0.938559322
0.935381356,0.941737288,0.938559322,0.94279661
0.941737288,0.938559322,0.94279661,0.951271186
0.938559322,0.94279661,0.951271186,0.950211864
0.94279661,0.951271186,0.950211864,0.950211864
0.951271186,0.950211864,0.950211864,0.952330508
0.950211864,0.950211864,0.952330508,0.952330508
0.950211864,0.952330508,0.952330508,0.950211864
0.952330508,0.952330508,0.950211864,0.951271186
0.952330508,0.950211864,0.951271186,0.954449153
0.950211864,0.951271186,0.954449153,0.94809322
0.951271186,0.954449153,0.94809322,0.94809322
0.954449153,0.94809322,0.94809322,0.947033898
0.94809322,0.94809322,0.947033898,0.939618644
0.94809322,0.947033898,0.939618644,0.933262712
0.947033898,0.939618644,0.933262712,0.925847458
0.939618644,0.933262712,0.925847458,0.922669492
0.933262712,0.925847458,0.922669492,0.915254237
0.925847458,0.922669492,0.915254237,0.906779661
0.922669492,0.915254237,0.906779661,0.896186441
0.915254237,0.906779661,0.896186441,0.886652542
0.906779661,0.896186441,0.886652542,0.884533898
0.896186441,0.886652542,0.884533898,0.871822034
0.886652542,0.884533898,0.871822034,0.860169492
0.884533898,0.871822034,0.860169492,0.851694915
0.871822034,0.860169492,0.851694915,0.840042373
0.860169492,0.851694915,0.840042373,0.832627119
0.851694915,0.840042373,0.832627119,0.82309322
0.840042373,0.832627119,0.82309322,0.814618644
0.832627119,0.82309322,0.814618644,0.806144068
0.82309322,0.814618644,0.806144068,0.798728814
0.814618644,0.806144068,0.798728814,0.794491525
0.806144068,0.798728814,0.794491525,0.786016949
0.798728814,0.794491525,0.786016949,0.781779661
0.794491525,0.786016949,0.781779661,0.775423729
0.786016949,0.781779661,0.775423729,0.775423729
0.781779661,0.775423729,0.775423729,0.771186441
0.775423729,0.775423729,0.771186441,0.771186441
0.775423729,0.771186441,0.771186441,0.764830508
0.771186441,0.771186441,0.764830508,0.763771186
0.771186441,0.764830508,0.763771186,0.762711864
0.764830508,0.763771186,0.762711864,0.762711864
0.763771186,0.762711864,0.762711864,0.764830508
0.762711864,0.762711864,0.764830508,0.764830508
0.762711864,0.764830508,0.764830508,0.769067797
0.764830508,0.764830508,0.769067797,0.768008475
0.764830508,0.769067797,0.768008475,0.764830508
0.769067797,0.768008475,0.764830508,0.768008475
0.768008475,0.764830508,0.768008475,0.771186441
0.764830508,0.768008475,0.771186441,0.768008475
0.768008475,0.771186441,0.768008475,0.769067797
0.771186441,0.768008475,0.769067797,0.766949153
0.768008475,0.769067797,0.766949153,0.769067797
0.769067797,0.766949153,0.769067797,0.769067797
0.766949153,0.769067797,0.769067797,0.768008475
0.769067797,0.769067797,0.768008475,0.770127119
0.769067797,0.768008475,0.770127119,0.771186441
0.768008475,0.770127119,0.771186441,0.771186441
0.770127119,0.771186441,0.771186441,0.771186441
0.771186441,0.771186441,0.771186441,0.768008475
0.771186441,0.771186441,0.768008475,0.768008475
0.771186441,0.768008475,0.768008475,0.766949153
0.768008475,0.768008475,0.766949153,0.768008475
0.768008475,0.766949153,0.768008475,0.768008475
0.766949153,0.768008475,0.768008475,0.768008475
0.768008475,0.768008475,0.768008475,0.768008475
0.768008475,0.768008475,0.768008475,0.765889831
0.768008475,0.768008475,0.765889831,0.762711864
0.768008475,0.765889831,0.762711864,0.764830508
0.765889831,0.762711864,0.764830508,0.763771186
0.762711864,0.764830508,0.763771186,0.765889831
0.764830508,0.763771186,0.765889831,0.759533898
0.763771186,0.765889831,0.759533898,0.761652542
0.765889831,0.759533898,0.761652542,0.75529661
0.759533898,0.761652542,0.75529661,0.759533898
0.761652542,0.75529661,0.759533898,0.758474576
0.75529661,0.759533898,0.758474576,0.754237288
0.759533898,0.758474576,0.754237288,0.756355932
0.758474576,0.754237288,0.756355932,0.75529661
0.754237288,0.756355932,0.75529661,0.754237288
0.756355932,0.75529661,0.754237288,0.753177966
0.75529661,0.754237288,0.753177966,0.752118644
0.754237288,0.753177966,0.752118644,0.751059322
0.753177966,0.752118644,0.751059322,0.75529661
0.752118644,0.751059322,0.75529661,0.754237288
0.751059322,0.75529661,0.754237288,0.754237288
0.75529661,0.754237288,0.754237288,0.751059322
0.754237288,0.754237288,0.751059322,0.754237288
0.754237288,0.751059322,0.754237288,0.756355932
0.751059322,0.754237288,0.756355932,0.756355932
0.754237288,0.756355932,0.756355932,0.759533898
0.756355932,0.756355932,0.759533898,0.769067797
0.756355932,0.759533898,0.769067797,0.770127119
0.759533898,0.769067797,0.770127119,0.766949153
0.769067797,0.770127119,0.766949153,0.773305085
0.770127119,0.766949153,0.773305085,0.773305085
0.766949153,0.773305085,0.773305085,0.773305085
0.773305085,0.773305085,0.773305085,0.776483051
0.773305085,0.773305085,0.776483051,0.769067797
0.773305085,0.776483051,0.769067797,0.768008475
0.776483051,0.769067797,0.768008475,0.768008475
0.769067797,0.768008475,0.768008475,0.757415254
0.768008475,0.768008475,0.757415254,0.753177966
0.768008475,0.757415254,0.753177966,0.753177966
0.757415254,0.753177966,0.753177966,0.747881356
0.753177966,0.753177966,0.747881356,0.746822034
0.753177966,0.747881356,0.746822034,0.746822034
0.747881356,0.746822034,0.746822034,0.740466102
0.746822034,0.746822034,0.740466102,0.737288136
0.746822034,0.740466102,0.737288136,0.738347458
0.740466102,0.737288136,0.738347458,0.740466102
0.737288136,0.738347458,0.740466102,0.733050847
0.738347458,0.740466102,0.733050847,0.738347458
0.740466102,0.733050847,0.738347458,0.738347458
0.733050847,0.738347458,0.738347458,0.740466102
0.738347458,0.738347458,0.740466102,0.738347458
0.738347458,0.740466102,0.738347458,0.73940678
0.740466102,0.738347458,0.73940678,0.73940678
0.738347458,0.73940678,0.73940678,0.737288136
0.73940678,0.73940678,0.737288136,0.740466102
0.73940678,0.737288136,0.740466102,0.737288136
0.737288136,0.740466102,0.737288136,0.737288136
0.740466102,0.737288136,0.737288136,0.73940678
0.737288136,0.737288136,0.73940678,0.733050847
0.737288136,0.73940678,0.733050847,0.733050847
0.73940678,0.733050847,0.733050847,0.735169492
0.733050847,0.733050847,0.735169492,0.733050847
0.733050847,0.735169492,0.733050847,0.733050847
0.735169492,0.733050847,0.733050847,0.735169492
0.733050847,0.733050847,0.735169492,0.736228814
0.733050847,0.735169492,0.736228814,0.736228814
0.735169492,0.736228814,0.736228814,0.731991525
0.736228814,0.736228814,0.731991525,0.734110169
0.736228814,0.731991525,0.734110169,0.736228814
0.731991525,0.734110169,0.736228814,0.734110169
0.734110169,0.736228814,0.734110169,0.736228814
0.736228814,0.734110169,0.736228814,0.735169492
0.734110169,0.736228814,0.735169492,0.733050847
0.736228814,0.735169492,0.733050847,0.730932203
0.735169492,0.733050847,0.730932203,0.731991525
0.733050847,0.730932203,0.731991525,0.728813559
0.730932203,0.731991525,0.728813559,0.724576271
0.731991525,0.728813559,0.724576271,0.728813559
0.728813559,0.724576271,0.728813559,0.734110169
0.724576271,0.728813559,0.734110169,0.722457627
0.728813559,0.734110169,0.722457627,0.671610169
0.734110169,0.722457627,0.671610169,0.565677966
0.722457627,0.671610169,0.565677966,0.430084746
0.671610169,0.565677966,0.430084746,0.294491525
0.565677966,0.430084746,0.294491525,0.1875
0.430084746,0.294491525,0.1875,0.140889831
0.294491525,0.1875,0.140889831,0.117584746
0.1875,0.140889831,0.117584746,0.109110169
0.140889831,0.117584746,0.109110169,0.102754237
0.117584746,0.109110169,0.102754237,0.097457627
0.109110169,0.102754237,0.097457627,0.109110169
0.102754237,0.097457627,0.109110169,0.13029661
0.097457627,0.109110169,0.13029661,0.163135593
0.109110169,0.13029661,0.163135593,0.205508475
0.13029661,0.163135593,0.205508475,0.240466102
0.163135593,0.205508475,0.240466102,0.261652542
0.205508475,0.240466102,0.261652542,0.284957627
0.240466102,0.261652542,0.284957627,0.313559322
0.261652542,0.284957627,0.313559322,0.36970339
0.284957627,0.313559322,0.36970339,0.435381356
0.313559322,0.36970339,0.435381356,0.506355932
0.36970339,0.435381356,0.506355932,0.568855932
0.435381356,0.506355932,0.568855932,0.610169492
0.506355932,0.568855932,0.610169492,0.638771186
0.568855932,0.610169492,0.638771186,0.668432203
0.610169492,0.638771186,0.668432203,0.699152542
0.638771186,0.668432203,0.699152542,0.734110169
0.668432203,0.699152542,0.734110169,0.769067797
0.699152542,0.734110169,0.769067797,0.788135593
0.734110169,0.769067797,0.788135593,0.804025424
0.769067797,0.788135593,0.804025424,0.810381356
0.788135593,0.804025424,0.810381356,0.80720339
0.804025424,0.810381356,0.80720339,0.805084746
0.810381356,0.80720339,0.805084746,0.80720339
0.80720339,0.805084746,0.80720339,0.808262712
0.805084746,0.80720339,0.808262712,0.80720339
0.80720339,0.808262712,0.80720339,0.81779661
0.808262712,0.80720339,0.81779661,0.816737288
0.80720339,0.81779661,0.816737288,0.818855932
0.81779661,0.816737288,0.818855932,0.818855932
0.816737288,0.818855932,0.818855932,0.822033898
0.818855932,0.818855932,0.822033898,0.819915254
0.818855932,0.822033898,0.819915254,0.818855932
0.822033898,0.819915254,0.818855932,0.816737288
0.819915254,0.818855932,0.816737288,0.824152542
0.818855932,0.816737288,0.824152542,0.825211864
0.816737288,0.824152542,0.825211864,0.825211864
0.824152542,0.825211864,0.825211864,0.830508475
0.825211864,0.825211864,0.830508475,0.833686441
0.825211864,0.830508475,0.833686441,0.832627119
0.830508475,0.833686441,0.832627119,0.831567797
0.833686441,0.832627119,0.831567797,0.833686441
0.832627119,0.831567797,0.833686441,0.838983051
0.831567797,0.833686441,0.838983051,0.841101695
0.833686441,0.838983051,0.841101695,0.843220339
0.838983051,0.841101695,0.843220339,0.847457627
0.841101695,0.843220339,0.847457627,0.845338983
0.843220339,0.847457627,0.845338983,0.848516949
0.847457627,0.845338983,0.848516949,0.849576271
0.845338983,0.848516949,0.849576271,0.853813559
0.848516949,0.849576271,0.853813559,0.854872881
0.849576271,0.853813559,0.854872881,0.862288136
0.853813559,0.854872881,0.862288136,0.863347458
0.854872881,0.862288136,0.863347458,0.867584746
0.862288136,0.863347458,0.867584746,0.870762712
0.863347458,0.867584746,0.870762712,0.88029661
0.867584746,0.870762712,0.88029661,0.879237288
0.870762712,0.88029661,0.879237288,0.882415254
0.88029661,0.879237288,0.882415254,0.882415254
0.879237288,0.882415254,0.882415254,0.886652542
0.882415254,0.882415254,0.886652542,0.893008475
0.882415254,0.886652542,0.893008475,0.900423729
0.886652542,0.893008475,0.900423729,0.900423729
0.893008475,0.900423729,0.900423729,0.900423729
0.900423729,0.900423729,0.900423729,0.911016949
0.900423729,0.900423729,0.911016949,0.911016949
0.900423729,0.911016949,0.911016949,0.916313559
0.911016949,0.911016949,0.916313559,0.922669492
0.911016949,0.916313559,0.922669492,0.924788136
0.916313559,0.922669492,0.924788136,0.924788136
0.922669492,0.924788136,0.924788136,0.927966102
0.924788136,0.924788136,0.927966102,0.933262712
0.924788136,0.927966102,0.933262712,0.935381356
0.927966102,0.933262712,0.935381356,0.936440678
0.933262712,0.935381356,0.936440678,0.940677966
0.935381356,0.936440678,0.940677966,0.945974576
0.936440678,0.940677966,0.945974576,0.944915254
0.940677966,0.945974576,0.944915254,0.939618644
0.945974576,0.944915254,0.939618644,0.939618644
0.944915254,0.939618644,0.939618644,0.936440678
0.939618644,0.939618644,0.936440678,0.938559322
0.939618644,0.936440678,0.938559322,0.940677966
0.936440678,0.938559322,0.940677966,0.935381356
0.938559322,0.940677966,0.935381356,0.929025424
0.940677966,0.935381356,0.929025424,0.924788136
0.935381356,0.929025424,0.924788136,0.917372881
0.929025424,0.924788136,0.917372881,0.908898305
0.924788136,0.917372881,0.908898305,0.902542373
0.917372881,0.908898305,0.902542373,0.896186441
0.908898305,0.902542373,0.896186441,0.889830508
0.902542373,0.896186441,0.889830508,0.881355932
0.896186441,0.889830508,0.881355932,0.872881356
0.889830508,0.881355932,0.872881356,0.859110169
0.881355932,0.872881356,0.859110169,0.850635593
0.872881356,0.859110169,0.850635593,0.836864407
0.859110169,0.850635593,0.836864407,0.827330508
0.850635593,0.836864407,0.827330508,0.814618644
0.836864407,0.827330508,0.814618644,0.805084746
0.827330508,0.814618644,0.805084746,0.798728814
0.814618644,0.805084746,0.798728814,0.792372881
0.805084746,0.798728814,0.792372881,0.782838983
0.798728814,0.792372881,0.782838983,0.777542373
0.792372881,0.782838983,0.777542373,0.769067797
0.782838983,0.777542373,0.769067797,0.763771186
0.777542373,0.769067797,0.763771186,0.761652542
0.769067797,0.763771186,0.761652542,0.751059322
0.763771186,0.761652542,0.751059322,0.747881356
0.761652542,0.751059322,0.747881356,0.746822034
0.751059322,0.747881356,0.746822034,0.746822034
0.747881356,0.746822034,0.746822034,0.74470339
0.746822034,0.746822034,0.74470339,0.745762712
0.746822034,0.74470339,0.745762712,0.742584746
0.74470339,0.745762712,0.742584746,0.743644068
0.745762712,0.742584746,0.743644068,0.745762712
0.742584746,0.743644068,0.745762712,0.74470339
0.743644068,0.745762712,0.74470339,0.745762712
0.745762712,0.74470339,0.745762712,0.74470339
0.74470339,0.745762712,0.74470339,0.742584746
0.745762712,0.74470339,0.742584746,0.747881356
0.74470339,0.742584746,0.747881356,0.747881356
0.742584746,0.747881356,0.747881356,0.745762712
0.747881356,0.747881356,0.745762712,0.745762712
0.747881356,0.745762712,0.745762712,0.743644068
0.745762712,0.745762712,0.743644068,0.746822034
0.745762712,0.743644068,0.746822034,0.743644068
0.743644068,0.746822034,0.743644068,0.756355932
0.746822034,0.743644068,0.756355932,0.748940678
0.743644068,0.756355932,0.748940678,0.75
0.756355932,0.748940678,0.75,0.75
0.748940678,0.75,0.75,0.75
0.75,0.75,0.75,0.747881356
0.75,0.75,0.747881356,0.74470339
0.75,0.747881356,0.74470339,0.747881356
0.747881356,0.74470339,0.747881356,0.745762712
0.74470339,0.747881356,0.745762712,0.745762712
0.747881356,0.745762712,0.745762712,0.743644068
0.745762712,0.745762712,0.743644068,0.743644068
0.745762712,0.743644068,0.743644068,0.746822034
0.743644068,0.743644068,0.746822034,0.743644068
0.743644068,0.746822034,0.743644068,0.73940678
0.746822034,0.743644068,0.73940678,0.736228814
0.743644068,0.73940678,0.736228814,0.736228814
0.73940678,0.736228814,0.736228814,0.737288136
0.736228814,0.736228814,0.737288136,0.737288136
0.736228814,0.737288136,0.737288136,0.73940678
0.737288136,0.737288136,0.73940678,0.733050847
0.737288136,0.73940678,0.733050847,0.730932203
0.73940678,0.733050847,0.730932203,0.738347458
0.733050847,0.730932203,0.738347458,0.737288136
0.730932203,0.738347458,0.737288136,0.733050847
0.738347458,0.737288136,0.733050847,0.734110169
0.737288136,0.733050847,0.734110169,0.731991525
0.733050847,0.734110169,0.731991525,0.731991525
0.734110169,0.731991525,0.731991525,0.734110169
0.731991525,0.731991525,0.734110169,0.730932203
0.731991525,0.734110169,0.730932203,0.731991525
0.734110169,0.730932203,0.731991525,0.727754237
0.730932203,0.731991525,0.727754237,0.730932203
0.731991525,0.727754237,0.730932203,0.728813559
0.727754237,0.730932203,0.728813559,0.727754237
0.730932203,0.728813559,0.727754237,0.728813559
0.728813559,0.727754237,0.728813559,0.731991525
0.727754237,0.728813559,0.731991525,0.737288136
0.728813559,0.731991525,0.737288136,0.735169492
0.731991525,0.737288136,0.735169492,0.73940678
0.737288136,0.735169492,0.73940678,0.742584746
0.735169492,0.73940678,0.742584746,0.746822034
0.73940678,0.742584746,0.746822034,0.752118644
0.742584746,0.746822034,0.752118644,0.752118644
0.746822034,0.752118644,0.752118644,0.75529661
0.752118644,0.752118644,0.75529661,0.756355932
0.752118644,0.75529661,0.756355932,0.756355932
0.75529661,0.756355932,0.756355932,0.754237288
0.756355932,0.756355932,0.754237288,0.75529661
0.756355932,0.754237288,0.75529661,0.748940678
0.754237288,0.75529661,0.748940678,0.745762712
0.75529661,0.748940678,0.745762712,0.740466102
0.748940678,0.745762712,0.740466102,0.729872881
0.745762712,0.740466102,0.729872881,0.736228814
0.740466102,0.729872881,0.736228814,0.731991525
0.729872881,0.736228814,0.731991525,0.726694915
0.736228814,0.731991525,0.726694915,0.726694915
0.731991525,0.726694915,0.726694915,0.724576271
0.726694915,0.726694915,0.724576271,0.725635593
0.726694915,0.724576271,0.725635593,0.721398305
0.724576271,0.725635593,0.721398305,0.720338983
0.725635593,0.721398305,0.720338983,0.715042373
0.721398305,0.720338983,0.715042373,0.720338983
0.720338983,0.715042373,0.720338983,0.716101695
0.715042373,0.720338983,0.716101695,0.720338983
0.720338983,0.716101695,0.720338983,0.722457627
0.716101695,0.720338983,0.722457627,0.724576271
0.720338983,0.722457627,0.724576271,0.722457627
0.722457627,0.724576271,0.722457627,0.720338983
0.724576271,0.722457627,0.720338983,0.717161017
0.722457627,0.720338983,0.717161017,0.719279661
0.720338983,0.717161017,0.719279661,0.720338983
0.717161017,0.719279661,0.720338983,0.718220339
0.719279661,0.720338983,0.718220339,0.720338983
0.720338983,0.718220339,0.720338983,0.716101695
0.718220339,0.720338983,0.716101695,0.719279661
0.720338983,0.716101695,0.719279661,0.716101695
0.716101695,0.719279661,0.716101695,0.722457627
0.719279661,0.716101695,0.722457627,0.717161017
0.716101695,0.722457627,0.717161017,0.720338983
0.722457627,0.717161017,0.720338983,0.716101695
0.717161017,0.720338983,0.716101695,0.713983051
0.720338983,0.716101695,0.713983051,0.717161017
0.716101695,0.713983051,0.717161017,0.720338983
0.713983051,0.717161017,0.720338983,0.716101695
0.717161017,0.720338983,0.716101695,0.713983051
0.720338983,0.716101695,0.713983051,0.719279661
0.716101695,0.713983051,0.719279661,0.719279661
0.713983051,0.719279661,0.719279661,0.718220339
0.719279661,0.719279661,0.718220339,0.716101695
0.719279661,0.718220339,0.716101695,0.710805085
0.718220339,0.716101695,0.710805085,0.707627119
0.716101695,0.710805085,0.707627119,0.708686441
0.710805085,0.707627119,0.708686441,0.713983051
0.707627119,0.708686441,0.713983051,0.712923729
0.708686441,0.713983051,0.712923729,0.670550847
0.713983051,0.712923729,0.670550847,0.577330508
0.712923729,0.670550847,0.577330508,0.441737288
0.670550847,0.577330508,0.441737288,0.306144068
0.577330508,0.441737288,0.306144068,0.193855932
0.441737288,0.306144068,0.193855932,0.145127119
0.306144068,0.193855932,0.145127119,0.117584746
0.193855932,0.145127119,0.117584746,0.112288136
0.145127119,0.117584746,0.112288136,0.109110169
0.117584746,0.112288136,0.109110169,0.103813559
0.112288136,0.109110169,0.103813559,0.104872881
0.109110169,0.103813559,0.104872881,0.112288136
0.103813559,0.104872881,0.112288136,0.13559322
0.104872881,0.112288136,0.13559322,0.175847458
0.112288136,0.13559322,0.175847458,0.211864407
0.13559322,0.175847458,0.211864407,0.243644068
0.175847458,0.211864407,0.243644068,0.254237288
0.211864407,0.243644068,0.254237288,0.283898305
0.243644068,0.254237288,0.283898305,0.327330508
0.254237288,0.283898305,0.327330508,0.388771186
0.283898305,0.327330508,0.388771186,0.454449153
0.327330508,0.388771186,0.454449153,0.529661017
0.388771186,0.454449153,0.529661017,0.582627119
0.454449153,0.529661017,0.582627119,0.618644068
0.529661017,0.582627119,0.618644068,0.646186441
0.582627119,0.618644068,0.646186441,0.674788136
0.618644068,0.646186441,0.674788136,0.710805085
0.646186441,0.674788136,0.710805085,0.73940678
0.674788136,0.710805085,0.73940678,0.770127119
0.710805085,0.73940678,0.770127119,0.784957627
0.73940678,0.770127119,0.784957627,0.791313559
0.770127119,0.784957627,0.791313559,0.793432203
0.784957627,0.791313559,0.793432203,0.793432203
0.791313559,0.793432203,0.793432203,0.791313559
0.793432203,0.793432203,0.791313559,0.795550847
0.793432203,0.791313559,0.795550847,0.802966102
0.791313559,0.795550847,0.802966102,0.798728814
0.795550847,0.802966102,0.798728814,0.804025424
0.802966102,0.798728814,0.804025424,0.804025424
0.798728814,0.804025424,0.804025424,0.804025424
0.804025424,0.804025424,0.804025424,0.80720339
0.804025424,0.804025424,0.80720339,0.810381356
0.804025424,0.80720339,0.810381356,0.8125
0.80720339,0.810381356,0.8125,0.810381356
0.810381356,0.8125,0.810381356,0.8125
0.8125,0.810381356,0.8125,0.815677966
0.810381356,0.8125,0.815677966,0.815677966
0.8125,0.815677966,0.815677966,0.822033898
0.815677966,0.815677966,0.822033898,0.820974576
0.815677966,0.822033898,0.820974576,0.819915254
0.822033898,0.820974576,0.819915254,0.82309322
0.820974576,0.819915254,0.82309322,0.819915254
0.819915254,0.82309322,0.819915254,0.832627119
0.82309322,0.819915254,0.832627119,0.833686441
0.819915254,0.832627119,0.833686441,0.832627119
0.832627119,0.833686441,0.832627119,0.840042373
0.833686441,0.832627119,0.840042373,0.838983051
0.832627119,0.840042373,0.838983051,0.840042373
0.840042373,0.838983051,0.840042373,0.842161017
0.838983051,0.840042373,0.842161017,0.844279661
0.840042373,0.842161017,0.844279661,0.846398305
0.842161017,0.844279661,0.846398305,0.849576271
0.844279661,0.846398305,0.849576271,0.858050847
0.846398305,0.849576271,0.858050847,0.853813559
0.849576271,0.858050847,0.853813559,0.86440678
0.858050847,0.853813559,0.86440678,0.865466102
0.853813559,0.86440678,0.865466102,0.865466102
0.86440678,0.865466102,0.865466102,0.867584746
0.865466102,0.865466102,0.867584746,0.873940678
0.865466102,0.867584746,0.873940678,0.882415254
0.867584746,0.873940678,0.882415254,0.881355932
0.873940678,0.882415254,0.881355932,0.888771186
0.882415254,0.881355932,0.888771186,0.890889831
0.881355932,0.888771186,0.890889831,0.889830508
0.888771186,0.890889831,0.889830508,0.898305085
0.890889831,0.889830508,0.898305085,0.902542373
0.889830508,0.898305085,0.902542373,0.904661017
0.898305085,0.902542373,0.904661017,0.908898305
0.902542373,0.904661017,0.908898305,0.912076271
0.904661017,0.908898305,0.912076271,0.918432203
0.908898305,0.912076271,0.918432203,0.918432203
0.912076271,0.918432203,0.918432203,0.924788136
0.918432203,0.918432203,0.924788136,0.924788136
0.918432203,0.924788136,0.924788136,0.924788136
0.924788136,0.924788136,0.924788136,0.93220339
0.924788136,0.924788136,0.93220339,0.925847458
0.924788136,0.93220339,0.925847458,0.930084746
0.93220339,0.925847458,0.930084746,0.927966102
0.925847458,0.930084746,0.927966102,0.930084746
0.930084746,0.927966102,0.930084746,0.93220339
0.927966102,0.930084746,0.93220339,0.927966102
0.930084746,0.93220339,0.927966102,0.925847458
0.93220339,0.927966102,0.925847458,0.92690678
0.927966102,0.925847458,0.92690678,0.921610169
0.925847458,0.92690678,0.921610169,0.918432203
0.92690678,0.921610169,0.918432203,0.909957627
0.921610169,0.918432203,0.909957627,0.907838983
0.918432203,0.909957627,0.907838983,0.905720339
0.909957627,0.907838983,0.905720339,0.898305085
0.907838983,0.905720339,0.898305085,0.888771186
0.905720339,0.898305085,0.888771186,0.876059322
0.898305085,0.888771186,0.876059322,0.872881356
0.888771186,0.876059322,0.872881356,0.860169492
0.876059322,0.872881356,0.860169492,0.847457627
0.872881356,0.860169492,0.847457627,0.838983051
0.860169492,0.847457627,0.838983051,0.830508475
0.847457627,0.838983051,0.830508475,0.814618644
0.838983051,0.830508475,0.814618644,0.805084746
0.830508475,0.814618644,0.805084746,0.796610169
0.814618644,0.805084746,0.796610169,0.793432203
0.805084746,0.796610169,0.793432203,0.778601695
0.796610169,0.793432203,0.778601695,0.771186441
0.793432203,0.778601695,0.771186441,0.768008475
0.778601695,0.771186441,0.768008475,0.761652542
0.771186441,0.768008475,0.761652542,0.754237288
0.768008475,0.761652542,0.754237288,0.751059322
0.761652542,0.754237288,0.751059322,0.745762712
0.754237288,0.751059322,0.745762712,0.746822034
0.751059322,0.745762712,0.746822034,0.74470339
0.745762712,0.746822034,0.74470339,0.743644068
0.746822034,0.74470339,0.743644068,0.737288136
0.74470339,0.743644068,0.737288136,0.737288136
0.743644068,0.737288136,0.737288136,0.734110169
0.737288136,0.737288136,0.734110169,0.737288136
0.737288136,0.734110169,0.737288136,0.736228814
0.734110169,0.737288136,0.736228814,0.736228814
0.737288136,0.736228814,0.736228814,0.740466102
0.736228814,0.736228814,0.740466102,0.73940678
0.736228814,0.740466102,0.73940678,0.743644068
0.740466102,0.73940678,0.743644068,0.73940678
0.73940678,0.743644068,0.73940678,0.740466102
0.743644068,0.73940678,0.740466102,0.742584746
0.73940678,0.740466102,0.742584746,0.743644068
0.740466102,0.742584746,0.743644068,0.741525424
0.742584746,0.743644068,0.741525424,0.737288136
0.743644068,0.741525424,0.737288136,0.737288136
0.741525424,0.737288136,0.737288136,0.743644068
0.737288136,0.737288136,0.743644068,0.741525424
0.737288136,0.743644068,0.741525424,0.735169492
0.743644068,0.741525424,0.735169492,0.738347458
0.741525424,0.735169492,0.738347458,0.737288136
0.735169492,0.738347458,0.737288136,0.742584746
0.738347458,0.737288136,0.742584746,0.736228814
0.737288136,0.742584746,0.736228814,0.741525424
0.742584746,0.736228814,0.741525424,0.740466102
0.736228814,0.741525424,0.740466102,0.741525424
0.741525424,0.740466102,0.741525424,0.735169492
0.740466102,0.741525424,0.735169492,0.733050847
0.741525424,0.735169492,0.733050847,0.733050847
0.735169492,0.733050847,0.733050847,0.731991525
0.733050847,0.733050847,0.731991525,0.730932203
0.733050847,0.731991525,0.730932203,0.733050847
0.731991525,0.730932203,0.733050847,0.727754237
0.730932203,0.733050847,0.727754237,0.731991525
0.733050847,0.727754237,0.731991525,0.728813559
0.727754237,0.731991525,0.728813559,0.728813559
0.731991525,0.728813559,0.728813559,0.728813559
0.728813559,0.728813559,0.728813559,0.724576271
0.728813559,0.728813559,0.724576271,0.726694915
0.728813559,0.724576271,0.726694915,0.728813559
0.724576271,0.726694915,0.728813559,0.721398305
0.726694915,0.728813559,0.721398305,0.725635593
0.728813559,0.721398305,0.725635593,0.721398305
0.721398305,0.725635593,0.721398305,0.720338983
0.725635593,0.721398305,0.720338983,0.723516949
0.721398305,0.720338983,0.723516949,0.725635593
0.720338983,0.723516949,0.725635593,0.725635593
0.723516949,0.725635593,0.725635593,0.722457627
0.725635593,0.725635593,0.722457627,0.721398305
0.725635593,0.722457627,0.721398305,0.720338983
0.722457627,0.721398305,0.720338983,0.722457627
0.721398305,0.720338983,0.722457627,0.720338983
0.720338983,0.722457627,0.720338983,0.724576271
0.722457627,0.720338983,0.724576271,0.722457627
0.720338983,0.724576271,0.722457627,0.730932203
0.724576271,0.722457627,0.730932203,0.728813559
0.722457627,0.730932203,0.728813559,0.730932203
0.730932203,0.728813559,0.730932203,0.735169492
0.728813559,0.730932203,0.735169492,0.734110169
0.730932203,0.735169492,0.734110169,0.743644068
0.735169492,0.734110169,0.743644068,0.746822034
0.734110169,0.743644068,0.746822034,0.751059322
0.743644068,0.746822034,0.751059322,0.752118644
0.746822034,0.751059322,0.752118644,0.752118644
0.751059322,0.752118644,0.752118644,0.75
0.752118644,0.752118644,0.75,0.746822034
0.752118644,0.75,0.746822034,0.74470339
0.75,0.746822034,0.74470339,0.741525424
0.746822034,0.74470339,0.741525424,0.731991525
0.74470339,0.741525424,0.731991525,0.731991525
0.741525424,0.731991525,0.731991525,0.727754237
0.731991525,0.731991525,0.727754237,0.729872881
0.731991525,0.727754237,0.729872881,0.729872881
0.727754237,0.729872881,0.729872881,0.723516949
0.729872881,0.729872881,0.723516949,0.723516949
0.729872881,0.723516949,0.723516949,0.717161017
0.723516949,0.723516949,0.717161017,0.720338983
0.723516949,0.717161017,0.720338983,0.721398305
0.717161017,0.720338983,0.721398305,0.720338983
0.720338983,0.721398305,0.720338983,0.719279661
0.721398305,0.720338983,0.719279661,0.723516949
0.720338983,0.719279661,0.723516949,0.723516949
0.719279661,0.723516949,0.723516949,0.721398305
0.723516949,0.723516949,0.721398305,0.720338983
0.723516949,0.721398305,0.720338983,0.720338983
0.721398305,0.720338983,0.720338983,0.721398305
0.720338983,0.720338983,0.721398305,0.715042373
0.720338983,0.721398305,0.715042373,0.715042373
0.721398305,0.715042373,0.715042373,0.717161017
0.715042373,0.715042373,0.717161017,0.720338983
0.715042373,0.717161017,0.720338983,0.720338983
0.717161017,0.720338983,0.720338983,0.721398305
0.720338983,0.720338983,0.721398305,0.720338983
0.720338983,0.721398305,0.720338983,0.721398305
0.721398305,0.720338983,0.721398305,0.720338983
0.720338983,0.721398305,0.720338983,0.719279661
0.721398305,0.720338983,0.719279661,0.719279661
0.720338983,0.719279661,0.719279661,0.721398305
0.719279661,0.719279661,0.721398305,0.723516949
0.719279661,0.721398305,0.723516949,0.721398305
0.721398305,0.723516949,0.721398305,0.715042373
0.723516949,0.721398305,0.715042373,0.713983051
0.721398305,0.715042373,0.713983051,0.719279661
0.715042373,0.713983051,0.719279661,0.718220339
0.713983051,0.719279661,0.718220339,0.713983051
0.719279661,0.718220339,0.713983051,0.718220339
0.718220339,0.713983051,0.718220339,0.713983051
0.713983051,0.718220339,0.713983051,0.708686441
0.718220339,0.713983051,0.708686441,0.705508475
0.713983051,0.708686441,0.705508475,0.706567797
0.708686441,0.705508475,0.706567797,0.706567797
0.705508475,0.706567797,0.706567797,0.693855932
0.706567797,0.706567797,0.693855932,0.637711864
0.706567797,0.693855932,0.637711864,0.521186441
0.693855932,0.637711864,0.521186441,0.38559322
0.637711864,0.521186441,0.38559322,0.253177966
0.521186441,0.38559322,0.253177966,0.18220339
0.38559322,0.253177966,0.18220339,0.144067797
0.253177966,0.18220339,0.144067797,0.134533898
0.18220339,0.144067797,0.134533898,0.122881356
0.144067797,0.134533898,0.122881356,0.117584746
0.134533898,0.122881356,0.117584746,0.117584746
0.122881356,0.117584746,0.117584746,0.128177966
0.117584746,0.117584746,0.128177966,0.154661017
0.117584746,0.128177966,0.154661017,0.186440678
0.128177966,0.154661017,0.186440678,0.236228814
0.154661017,0.186440678,0.236228814,0.264830508
0.186440678,0.236228814,0.264830508,0.286016949
0.236228814,0.264830508,0.286016949,0.30720339
0.264830508,0.286016949,0.30720339,0.341101695
0.286016949,0.30720339,0.341101695,0.397245763
0.30720339,0.341101695,0.397245763,0.459745763
0.341101695,0.397245763,0.459745763,0.527542373
0.397245763,0.459745763,0.527542373,0.579449153
0.459745763,0.527542373,0.579449153,0.621822034
0.527542373,0.579449153,0.621822034,0.645127119
0.579449153,0.621822034,0.645127119,0.674788136
0.621822034,0.645127119,0.674788136,0.702330508
0.645127119,0.674788136,0.702330508,0.733050847
0.674788136,0.702330508,0.733050847,0.763771186
0.702330508,0.733050847,0.763771186,0.788135593
0.733050847,0.763771186,0.788135593,0.793432203
0.763771186,0.788135593,0.793432203,0.800847458
0.788135593,0.793432203,0.800847458,0.800847458
0.793432203,0.800847458,0.800847458,0.796610169
0.800847458,0.800847458,0.796610169,0.805084746
0.800847458,0.796610169,0.805084746,0.805084746
0.796610169,0.805084746,0.805084746,0.805084746
0.805084746,0.805084746,0.805084746,0.80720339
0.805084746,0.805084746,0.80720339,0.80720339
0.805084746,0.80720339,0.80720339,0.80720339
0.80720339,0.80720339,0.80720339,0.8125
0.80720339,0.80720339,0.8125,0.816737288
0.80720339,0.8125,0.816737288,0.815677966
0.8125,0.816737288,0.815677966,0.818855932
0.816737288,0.815677966,0.818855932,0.825211864
0.815677966,0.818855932,0.825211864,0.819915254
0.818855932,0.825211864,0.819915254,0.824152542
0.825211864,0.819915254,0.824152542,0.824152542
0.819915254,0.824152542,0.824152542,0.827330508
0.824152542,0.824152542,0.827330508,0.828389831
0.824152542,0.827330508,0.828389831,0.834745763
0.827330508,0.828389831,0.834745763,0.832627119
0.828389831,0.834745763,0.832627119,0.834745763
0.834745763,0.832627119,0.834745763,0.837923729
0.832627119,0.834745763,0.837923729,0.838983051
0.834745763,0.837923729,0.838983051,0.837923729
0.837923729,0.838983051,0.837923729,0.845338983
0.838983051,0.837923729,0.845338983,0.843220339
0.837923729,0.845338983,0.843220339,0.848516949
0.845338983,0.843220339,0.848516949,0.853813559
0.843220339,0.848516949,0.853813559,0.860169492
0.848516949,0.853813559,0.860169492,0.856991525
0.853813559,0.860169492,0.856991525,0.862288136
0.860169492,0.856991525,0.862288136,0.863347458
0.856991525,0.862288136,0.863347458,0.867584746
0.862288136,0.863347458,0.867584746,0.86970339
0.863347458,0.867584746,0.86970339,0.872881356
0.867584746,0.86970339,0.872881356,0.875
0.86970339,0.872881356,0.875,0.882415254
0.872881356,0.875,0.882415254,0.884533898
0.875,0.882415254,0.884533898,0.887711864
0.882415254,0.884533898,0.887711864,0.895127119
0.884533898,0.887711864,0.895127119,0.898305085
0.887711864,0.895127119,0.898305085,0.899364407
0.895127119,0.898305085,0.899364407,0.898305085
0.898305085,0.899364407,0.898305085,0.905720339
0.899364407,0.898305085,0.905720339,0.909957627
0.898305085,0.905720339,0.909957627,0.916313559
0.905720339,0.909957627,0.916313559,0.919491525
0.909957627,0.916313559,0.919491525,0.922669492
0.916313559,0.919491525,0.922669492,0.922669492
0.919491525,0.922669492,0.922669492,0.92690678
0.922669492,0.922669492,0.92690678,0.923728814
0.922669492,0.92690678,0.923728814,0.924788136
0.92690678,0.923728814,0.924788136,0.930084746
0.923728814,0.924788136,0.930084746,0.930084746
0.924788136,0.930084746,0.930084746,0.933262712
0.930084746,0.930084746,0.933262712,0.939618644
0.930084746,0.933262712,0.939618644,0.9375
0.933262712,0.939618644,0.9375,0.935381356
0.939618644,0.9375,0.935381356,0.933262712
0.9375,0.935381356,0.933262712,0.931144068
0.935381356,0.933262712,0.931144068,0.930084746
0.933262712,0.931144068,0.930084746,0.92690678
0.931144068,0.930084746,0.92690678,0.924788136
0.930084746,0.92690678,0.924788136,0.920550847
0.92690678,0.924788136,0.920550847,0.914194915
0.924788136,0.920550847,0.914194915,0.909957627
0.920550847,0.914194915,0.909957627,0.907838983
0.914194915,0.909957627,0.907838983,0.894067797
0.909957627,0.907838983,0.894067797,0.888771186
0.907838983,0.894067797,0.888771186,0.882415254
0.894067797,0.888771186,0.882415254,0.871822034
0.888771186,0.882415254,0.871822034,0.86440678
0.882415254,0.871822034,0.86440678,0.854872881
0.871822034,0.86440678,0.854872881,0.844279661
0.86440678,0.854872881,0.844279661,0.835805085
0.854872881,0.844279661,0.835805085,0.822033898
0.844279661,0.835805085,0.822033898,0.815677966
0.835805085,0.822033898,0.815677966,0.804025424
0.822033898,0.815677966,0.804025424,0.794491525
0.815677966,0.804025424,0.794491525,0.792372881
0.804025424,0.794491525,0.792372881,0.780720339
0.794491525,0.792372881,0.780720339,0.774364407
0.792372881,0.780720339,0.774364407,0.772245763
0.780720339,0.774364407,0.772245763,0.768008475
0.774364407,0.772245763,0.768008475,0.759533898
0.772245763,0.768008475,0.759533898,0.76059322
0.768008475,0.759533898,0.76059322,0.754237288
0.759533898,0.76059322,0.754237288,0.756355932
0.76059322,0.754237288,0.756355932,0.75529661
0.754237288,0.756355932,0.75529661,0.753177966
0.756355932,0.75529661,0.753177966,0.75
0.75529661,0.753177966,0.75,0.75
0.753177966,0.75,0.75,0.754237288
0.75,0.75,0.754237288,0.75529661
0.75,0.754237288,0.75529661,0.75529661
0.754237288,0.75529661,0.75529661,0.745762712
0.75529661,0.75529661,0.745762712,0.751059322
0.75529661,0.745762712,0.751059322,0.752118644
0.745762712,0.751059322,0.752118644,0.754237288
0.751059322,0.752118644,0.754237288,0.751059322
0.752118644,0.754237288,0.751059322,0.754237288
0.754237288,0.751059322,0.754237288,0.754237288
0.751059322,0.754237288,0.754237288,0.753177966
0.754237288,0.754237288,0.753177966,0.751059322
0.754237288,0.753177966,0.751059322,0.754237288
0.753177966,0.751059322,0.754237288,0.757415254
0.751059322,0.754237288,0.757415254,0.754237288
0.754237288,0.757415254,0.754237288,0.757415254
0.757415254,0.754237288,0.757415254,0.757415254
0.754237288,0.757415254,0.757415254,0.76059322
0.757415254,0.757415254,0.76059322,0.754237288
0.757415254,0.76059322,0.754237288,0.753177966
0.76059322,0.754237288,0.753177966,0.751059322
0.754237288,0.753177966,0.751059322,0.746822034
0.753177966,0.751059322,0.746822034,0.748940678
0.751059322,0.746822034,0.748940678,0.74470339
0.746822034,0.748940678,0.74470339,0.747881356
0.748940678,0.74470339,0.747881356,0.747881356
0.74470339,0.747881356,0.747881356,0.743644068
0.747881356,0.747881356,0.743644068,0.747881356
0.747881356,0.743644068,0.747881356,0.746822034
0.743644068,0.747881356,0.746822034,0.740466102
0.747881356,0.746822034,0.740466102,0.742584746
0.746822034,0.740466102,0.742584746,0.740466102
0.740466102,0.742584746,0.740466102,0.73940678
0.742584746,0.740466102,0.73940678,0.741525424
0.740466102,0.73940678,0.741525424,0.740466102
0.73940678,0.741525424,0.740466102,0.741525424
0.741525424,0.740466102,0.741525424,0.737288136
0.740466102,0.741525424,0.737288136,0.736228814
0.741525424,0.737288136,0.736228814,0.73940678
0.737288136,0.736228814,0.73940678,0.738347458
0.736228814,0.73940678,0.738347458,0.735169492
0.73940678,0.738347458,0.735169492,0.736228814
0.738347458,0.735169492,0.736228814,0.734110169
0.735169492,0.736228814,0.734110169,0.734110169
0.736228814,0.734110169,0.734110169,0.737288136
0.734110169,0.734110169,0.737288136,0.738347458
0.734110169,0.737288136,0.738347458,0.734110169
0.737288136,0.738347458,0.734110169,0.737288136
0.738347458,0.734110169,0.737288136,0.746822034
0.734110169,0.737288136,0.746822034,0.745762712
0.737288136,0.746822034,0.745762712,0.751059322
0.746822034,0.745762712,0.751059322,0.75
0.745762712,0.751059322,0.75,0.75529661
0.751059322,0.75,0.75529661,0.757415254
0.75,0.75529661,0.757415254,0.758474576
0.75529661,0.757415254,0.758474576,0.759533898
0.757415254,0.758474576,0.759533898,0.751059322
0.758474576,0.759533898,0.751059322,0.752118644
0.759533898,0.751059322,0.752118644,0.752118644
0.751059322,0.752118644,0.752118644,0.748940678
0.752118644,0.752118644,0.748940678,0.743644068
0.752118644,0.748940678,0.743644068,0.73940678
0.748940678,0.743644068,0.73940678,0.736228814
0.743644068,0.73940678,0.736228814,0.737288136
0.73940678,0.736228814,0.737288136,0.731991525
0.736228814,0.737288136,0.731991525,0.727754237
0.737288136,0.731991525,0.727754237,0.729872881
0.731991525,0.727754237,0.729872881,0.723516949
0.727754237,0.729872881,0.723516949,0.726694915
0.729872881,0.723516949,0.726694915,0.722457627
0.723516949,0.726694915,0.722457627,0.720338983
0.726694915,0.722457627,0.720338983,0.726694915
0.722457627,0.720338983,0.726694915,0.723516949
0.720338983,0.726694915,0.723516949,0.723516949
0.726694915,0.723516949,0.723516949,0.726694915
0.723516949,0.723516949,0.726694915,0.726694915
0.723516949,0.726694915,0.726694915,0.725635593
0.726694915,0.726694915,0.725635593,0.725635593
0.726694915,0.725635593,0.725635593,0.722457627
0.725635593,0.725635593,0.722457627,0.721398305
0.725635593,0.722457627,0.721398305,0.721398305
0.722457627,0.721398305,0.721398305,0.723516949
0.721398305,0.721398305,0.723516949,0.724576271
0.721398305,0.723516949,0.724576271,0.721398305
0.723516949,0.724576271,0.721398305,0.722457627
0.724576271,0.721398305,0.722457627,0.723516949
0.721398305,0.722457627,0.723516949,0.720338983
0.722457627,0.723516949,0.720338983,0.726694915
0.723516949,0.720338983,0.726694915,0.728813559
0.720338983,0.726694915,0.728813559,0.723516949
0.726694915,0.728813559,0.723516949,0.726694915
0.728813559,0.723516949,0.726694915,0.725635593
0.723516949,0.726694915,0.725635593,0.730932203
0.726694915,0.725635593,0.730932203,0.728813559
0.725635593,0.730932203,0.728813559,0.729872881
0.730932203,0.728813559,0.729872881,0.727754237
0.728813559,0.729872881,0.727754237,0.721398305
0.729872881,0.727754237,0.721398305,0.728813559
0.727754237,0.721398305,0.728813559,0.725635593
0.721398305,0.728813559,0.725635593,0.723516949
0.728813559,0.725635593,0.723516949,0.719279661
0.725635593,0.723516949,0.719279661,0.718220339
0.723516949,0.719279661,0.718220339,0.719279661
0.719279661,0.718220339,0.719279661,0.718220339
0.718220339,0.719279661,0.718220339,0.693855932
0.719279661,0.718220339,0.693855932,0.61970339
0.718220339,0.693855932,0.61970339,0.48940678
0.693855932,0.61970339,0.48940678,0.353813559
0.61970339,0.48940678,0.353813559,0.225635593
0.48940678,0.353813559,0.225635593,0.156779661
0.353813559,0.225635593,0.156779661,0.129237288
0.225635593,0.156779661,0.129237288,0.116525424
0.156779661,0.129237288,0.116525424,0.108050847
0.129237288,0.116525424,0.108050847,0.105932203
0.116525424,0.108050847,0.105932203,0.105932203
0.108050847,0.105932203,0.105932203,0.113347458
0.105932203,0.105932203,0.113347458,0.134533898
0.105932203,0.113347458,0.134533898,0.171610169
0.113347458,0.134533898,0.171610169,0.215042373
0.134533898,0.171610169,0.215042373,0.246822034
0.171610169,0.215042373,0.246822034,0.269067797
0.215042373,0.246822034,0.269067797,0.297669492
0.246822034,0.269067797,0.297669492,0.338983051
0.269067797,0.297669492,0.338983051,0.399364407
0.297669492,0.338983051,0.399364407,0.465042373
0.338983051,0.399364407,0.465042373,0.539194915
0.399364407,0.465042373,0.539194915,0.591101695
0.465042373,0.539194915,0.591101695,0.625
0.539194915,0.591101695,0.625,0.653601695
0.591101695,0.625,0.653601695,0.684322034
0.625,0.653601695,0.684322034,0.713983051
0.653601695,0.684322034,0.713983051,0.747881356
0.684322034,0.713983051,0.747881356,0.775423729
0.713983051,0.747881356,0.775423729,0.795550847
0.747881356,0.775423729,0.795550847,0.798728814
0.775423729,0.795550847,0.798728814,0.80720339
0.795550847,0.798728814,0.80720339,0.809322034
0.798728814,0.80720339,0.809322034,0.806144068
0.80720339,0.809322034,0.806144068,0.809322034
0.809322034,0.806144068,0.809322034,0.810381356
0.806144068,0.809322034,0.810381356,0.808262712
0.809322034,0.810381356,0.808262712,0.8125
0.810381356,0.808262712,0.8125,0.810381356
0.808262712,0.8125,0.810381356,0.816737288
0.8125,0.810381356,0.816737288,0.818855932
0.810381356,0.816737288,0.818855932,0.820974576
0.816737288,0.818855932,0.820974576,0.82309322
0.818855932,0.820974576,0.82309322,0.822033898
0.820974576,0.82309322,0.822033898,0.828389831
0.82309322,0.822033898,0.828389831,0.829449153
0.822033898,0.828389831,0.829449153,0.831567797
0.828389831,0.829449153,0.831567797,0.828389831
0.829449153,0.831567797,0.828389831,0.836864407
0.831567797,0.828389831,0.836864407,0.835805085
0.828389831,0.836864407,0.835805085,0.837923729
0.836864407,0.835805085,0.837923729,0.837923729
0.835805085,0.837923729,0.837923729,0.841101695
0.837923729,0.837923729,0.841101695,0.841101695
0.837923729,0.841101695,0.841101695,0.843220339
0.841101695,0.841101695,0.843220339,0.850635593
0.841101695,0.843220339,0.850635593,0.848516949
0.843220339,0.850635593,0.848516949,0.852754237
0.850635593,0.848516949,0.852754237,0.856991525
0.848516949,0.852754237,0.856991525,0.862288136
0.852754237,0.856991525,0.862288136,0.861228814
0.856991525,0.862288136,0.861228814,0.86440678
0.862288136,0.861228814,0.86440678,0.865466102
0.861228814,0.86440678,0.865466102,0.870762712
0.86440678,0.865466102,0.870762712,0.873940678
0.865466102,0.870762712,0.873940678,0.878177966
0.870762712,0.873940678,0.878177966,0.88559322
0.873940678,0.878177966,0.88559322,0.887711864
0.878177966,0.88559322,0.887711864,0.894067797
0.88559322,0.887711864,0.894067797,0.896186441
0.887711864,0.894067797,0.896186441,0.900423729
0.894067797,0.896186441,0.900423729,0.904661017
0.896186441,0.900423729,0.904661017,0.908898305
0.900423729,0.904661017,0.908898305,0.909957627
0.904661017,0.908898305,0.909957627,0.915254237
0.908898305,0.909957627,0.915254237,0.920550847
0.909957627,0.915254237,0.920550847,0.924788136
0.915254237,0.920550847,0.924788136,0.929025424
0.920550847,0.924788136,0.929025424,0.936440678
0.924788136,0.929025424,0.936440678,0.935381356
0.929025424,0.936440678,0.935381356,0.940677966
0.936440678,0.935381356,0.940677966,0.939618644
0.935381356,0.940677966,0.939618644,0.941737288
0.940677966,0.939618644,0.941737288,0.943855932
0.939618644,0.941737288,0.943855932,0.945974576
0.941737288,0.943855932,0.945974576,0.94809322
0.943855932,0.945974576,0.94809322,0.951271186
0.945974576,0.94809322,0.951271186,0.952330508
0.94809322,0.951271186,0.952330508,0.953389831
0.951271186,0.952330508,0.953389831,0.94809322
0.952330508,0.953389831,0.94809322,0.951271186
0.953389831,0.94809322,0.951271186,0.94809322
0.94809322,0.951271186,0.94809322,0.940677966
0.951271186,0.94809322,0.940677966,0.940677966
0.94809322,0.940677966,0.940677966,0.94279661
0.940677966,0.940677966,0.94279661,0.938559322
0.940677966,0.94279661,0.938559322,0.927966102
0.94279661,0.938559322,0.927966102,0.924788136
0.938559322,0.927966102,0.924788136,0.912076271
0.927966102,0.924788136,0.912076271,0.906779661
0.924788136,0.912076271,0.906779661,0.899364407
0.912076271,0.906779661,0.899364407,0.887711864
0.906779661,0.899364407,0.887711864,0.877118644
0.899364407,0.887711864,0.877118644,0.866525424
0.887711864,0.877118644,0.866525424,0.854872881
0.877118644,0.866525424,0.854872881,0.846398305
0.866525424,0.854872881,0.846398305,0.836864407
0.854872881,0.846398305,0.836864407,0.826271186
0.846398305,0.836864407,0.826271186,0.811440678
0.836864407,0.826271186,0.811440678,0.799788136
0.826271186,0.811440678,0.799788136,0.794491525
0.811440678,0.799788136,0.794491525,0.784957627
0.799788136,0.794491525,0.784957627,0.778601695
0.794491525,0.784957627,0.778601695,0.775423729
0.784957627,0.778601695,0.775423729,0.771186441
0.778601695,0.775423729,0.771186441,0.766949153
0.775423729,0.771186441,0.766949153,0.762711864
0.771186441,0.766949153,0.762711864,0.757415254
0.766949153,0.762711864,0.757415254,0.751059322
0.762711864,0.757415254,0.751059322,0.747881356
0.757415254,0.751059322,0.747881356,0.747881356
0.751059322,0.747881356,0.747881356,0.751059322
0.747881356,0.747881356,0.751059322,0.75
0.747881356,0.751059322,0.75,0.75
0.751059322,0.75,0.75,0.752118644
0.75,0.75,0.752118644,0.74470339
0.75,0.752118644,0.74470339,0.745762712
0.752118644,0.74470339,0.745762712,0.748940678
0.74470339,0.745762712,0.748940678,0.75
0.745762712,0.748940678,0.75,0.752118644
0.748940678,0.75,0.752118644,0.754237288
0.75,0.752118644,0.754237288,0.756355932
0.752118644,0.754237288,0.756355932,0.754237288
0.754237288,0.756355932,0.754237288,0.746822034
0.756355932,0.754237288,0.746822034,0.75
0.754237288,0.746822034,0.75,0.756355932
0.746822034,0.75,0.756355932,0.753177966
0.75,0.756355932,0.753177966,0.75529661
0.756355932,0.753177966,0.75529661,0.754237288
0.753177966,0.75529661,0.754237288,0.753177966
0.75529661,0.754237288,0.753177966,0.751059322
0.754237288,0.753177966,0.751059322,0.75529661
0.753177966,0.751059322,0.75529661,0.75529661
0.751059322,0.75529661,0.75529661,0.75
0.75529661,0.75529661,0.75,0.751059322
0.75529661,0.75,0.751059322,0.746822034
0.75,0.751059322,0.746822034,0.75
0.751059322,0.746822034,0.75,0.746822034
0.746822034,0.75,0.746822034,0.753177966
0.75,0.746822034,0.753177966,0.747881356
0.746822034,0.753177966,0.747881356,0.747881356
0.753177966,0.747881356,0.747881356,0.747881356
0.747881356,0.747881356,0.747881356,0.743644068
0.747881356,0.747881356,0.743644068,0.742584746
0.747881356,0.743644068,0.742584746,0.745762712
0.743644068,0.742584746,0.745762712,0.747881356
0.742584746,0.745762712,0.747881356,0.741525424
0.745762712,0.747881356,0.741525424,0.74470339
0.747881356,0.741525424,0.74470339,0.743644068
0.741525424,0.74470339,0.743644068,0.740466102
0.74470339,0.743644068,0.740466102,0.73940678
0.743644068,0.740466102,0.73940678,0.740466102
0.740466102,0.73940678,0.740466102,0.737288136
0.73940678,0.740466102,0.737288136,0.737288136
0.740466102,0.737288136,0.737288136,0.737288136
0.737288136,0.737288136,0.737288136,0.735169492
0.737288136,0.737288136,0.735169492,0.73940678
0.737288136,0.735169492,0.73940678,0.737288136
0.735169492,0.73940678,0.737288136,0.737288136
0.73940678,0.737288136,0.737288136,0.73940678
0.737288136,0.737288136,0.73940678,0.73940678
0.737288136,0.73940678,0.73940678,0.735169492
0.73940678,0.73940678,0.735169492,0.73940678
0.73940678,0.735169492,0.73940678,0.740466102
0.735169492,0.73940678,0.740466102,0.746822034
0.73940678,0.740466102,0.746822034,0.75
0.740466102,0.746822034,0.75,0.753177966
0.746822034,0.75,0.753177966,0.75529661
0.75,0.753177966,0.75529661,0.754237288
0.753177966,0.75529661,0.754237288,0.763771186
0.75529661,0.754237288,0.763771186,0.76059322
0.754237288,0.763771186,0.76059322,0.762711864
0.763771186,0.76059322,0.762711864,0.757415254
0.76059322,0.762711864,0.757415254,0.754237288
0.762711864,0.757415254,0.754237288,0.752118644
0.757415254,0.754237288,0.752118644,0.754237288
0.754237288,0.752118644,0.754237288,0.74470339
0.752118644,0.754237288,0.74470339,0.740466102
0.754237288,0.74470339,0.740466102,0.737288136
0.74470339,0.740466102,0.737288136,0.736228814
0.740466102,0.737288136,0.736228814,0.733050847
0.737288136,0.736228814,0.733050847,0.729872881
0.736228814,0.733050847,0.729872881,0.729872881
0.733050847,0.729872881,0.729872881,0.726694915
0.729872881,0.729872881,0.726694915,0.724576271
0.729872881,0.726694915,0.724576271,0.724576271
0.726694915,0.724576271,0.724576271,0.727754237
0.724576271,0.724576271,0.727754237,0.726694915
0.724576271,0.727754237,0.726694915,0.724576271
0.727754237,0.726694915,0.724576271,0.727754237
0.726694915,0.724576271,0.727754237,0.727754237
0.724576271,0.727754237,0.727754237,0.725635593
0.727754237,0.727754237,0.725635593,0.725635593
0.727754237,0.725635593,0.725635593,0.722457627
0.725635593,0.725635593,0.722457627,0.726694915
0.725635593,0.722457627,0.726694915,0.729872881
0.722457627,0.726694915,0.729872881,0.727754237
0.726694915,0.729872881,0.727754237,0.728813559
0.729872881,0.727754237,0.728813559,0.726694915
0.727754237,0.728813559,0.726694915,0.726694915
0.728813559,0.726694915,0.726694915,0.724576271
0.726694915,0.726694915,0.724576271,0.726694915
0.726694915,0.724576271,0.726694915,0.725635593
0.724576271,0.726694915,0.725635593,0.725635593
0.726694915,0.725635593,0.725635593,0.723516949
0.725635593,0.725635593,0.723516949,0.724576271
0.725635593,0.723516949,0.724576271,0.724576271
0.723516949,0.724576271,0.724576271,0.725635593
0.724576271,0.724576271,0.725635593,0.723516949
0.724576271,0.725635593,0.723516949,0.726694915
0.725635593,0.723516949,0.726694915,0.727754237
0.723516949,0.726694915,0.727754237,0.723516949
0.726694915,0.727754237,0.723516949,0.725635593
0.727754237,0.723516949,0.725635593,0.724576271
0.723516949,0.725635593,0.724576271,0.721398305
0.725635593,0.724576271,0.721398305,0.720338983
0.724576271,0.721398305,0.720338983,0.717161017
0.721398305,0.720338983,0.717161017,0.712923729
0.720338983,0.717161017,0.712923729,0.716101695
0.717161017,0.712923729,0.716101695,0.716101695
0.712923729,0.716101695,0.716101695,0.690677966
0.716101695,0.716101695,0.690677966,0.608050847
0.716101695,0.690677966,0.608050847,0.472457627
0.690677966,0.608050847,0.472457627,0.336864407
0.608050847,0.472457627,0.336864407,0.202330508
0.472457627,0.336864407,0.202330508,0.145127119
0.336864407,0.202330508,0.145127119,0.121822034
0.202330508,0.145127119,0.121822034,0.106991525
0.145127119,0.121822034,0.106991525,0.102754237
0.121822034,0.106991525,0.102754237,0.099576271
0.106991525,0.102754237,0.099576271,0.103813559
0.102754237,0.099576271,0.103813559,0.106991525
0.099576271,0.103813559,0.106991525,0.13559322
0.103813559,0.106991525,0.13559322,0.168432203
0.106991525,0.13559322,0.168432203,0.208686441
0.13559322,0.168432203,0.208686441,0.235169492
0.168432203,0.208686441,0.235169492,0.253177966
0.208686441,0.235169492,0.253177966,0.273305085
0.235169492,0.253177966,0.273305085,0.313559322
0.253177966,0.273305085,0.313559322,0.368644068
0.273305085,0.313559322,0.368644068,0.439618644
0.313559322,0.368644068,0.439618644,0.508474576
0.368644068,0.439618644,0.508474576,0.56779661
0.439618644,0.508474576,0.56779661,0.613347458
0.508474576,0.56779661,0.613347458,0.643008475
0.56779661,0.613347458,0.643008475,0.666313559
0.613347458,0.643008475,0.666313559,0.69279661
0.643008475,0.666313559,0.69279661,0.728813559
0.666313559,0.69279661,0.728813559,0.757415254
0.69279661,0.728813559,0.757415254,0.786016949
0.728813559,0.757415254,0.786016949,0.806144068
0.757415254,0.786016949,0.806144068,0.80720339
0.786016949,0.806144068,0.80720339,0.806144068
0.806144068,0.80720339,0.806144068,0.80720339
0.80720339,0.806144068,0.80720339,0.8125
0.806144068,0.80720339,0.8125,0.80720339
0.80720339,0.8125,0.80720339,0.8125
0.8125,0.80720339,0.8125,0.816737288
0.80720339,0.8125,0.816737288,0.818855932
0.8125,0.816737288,0.818855932,0.826271186
0.816737288,0.818855932,0.826271186,0.824152542
0.818855932,0.826271186,0.824152542,0.822033898
0.826271186,0.824152542,0.822033898,0.825211864
0.824152542,0.822033898,0.825211864,0.828389831
0.822033898,0.825211864,0.828389831,0.828389831
0.825211864,0.828389831,0.828389831,0.826271186
0.828389831,0.828389831,0.826271186,0.832627119
0.828389831,0.826271186,0.832627119,0.837923729
0.826271186,0.832627119,0.837923729,0.836864407
0.832627119,0.837923729,0.836864407,0.838983051
0.837923729,0.836864407,0.838983051,0.844279661
0.836864407,0.838983051,0.844279661,0.844279661
0.838983051,0.844279661,0.844279661,0.846398305
0.844279661,0.844279661,0.846398305,0.848516949
0.844279661,0.846398305,0.848516949,0.852754237
0.846398305,0.848516949,0.852754237,0.853813559
0.848516949,0.852754237,0.853813559,0.856991525
0.852754237,0.853813559,0.856991525,0.859110169
0.853813559,0.856991525,0.859110169,0.862288136
0.856991525,0.859110169,0.862288136,0.866525424
0.859110169,0.862288136,0.866525424,0.867584746
0.862288136,0.866525424,0.867584746,0.868644068
0.866525424,0.867584746,0.868644068,0.875
0.867584746,0.868644068,0.875,0.878177966
0.868644068,0.875,0.878177966,0.88029661
0.875,0.878177966,0.88029661,0.886652542
0.878177966,0.88029661,0.886652542,0.887711864
0.88029661,0.886652542,0.887711864,0.889830508
0.886652542,0.887711864,0.889830508,0.893008475
0.887711864,0.889830508,0.893008475,0.900423729
0.889830508,0.893008475,0.900423729,0.903601695
0.893008475,0.900423729,0.903601695,0.904661017
0.900423729,0.903601695,0.904661017,0.908898305
0.903601695,0.904661017,0.908898305,0.917372881
0.904661017,0.908898305,0.917372881,0.922669492
0.908898305,0.917372881,0.922669492,0.92690678
0.917372881,0.922669492,0.92690678,0.92690678
0.922669492,0.92690678,0.92690678,0.930084746
0.92690678,0.92690678,0.930084746,0.933262712
0.92690678,0.930084746,0.933262712,0.935381356
0.930084746,0.933262712,0.935381356,0.94279661
0.933262712,0.935381356,0.94279661,0.941737288
0.935381356,0.94279661,0.941737288,0.949152542
0.94279661,0.941737288,0.949152542,0.950211864
0.941737288,0.949152542,0.950211864,0.945974576
0.949152542,0.950211864,0.945974576,0.952330508
0.950211864,0.945974576,0.952330508,0.954449153
0.945974576,0.952330508,0.954449153,0.949152542
0.952330508,0.954449153,0.949152542,0.94809322
0.954449153,0.949152542,0.94809322,0.950211864
0.949152542,0.94809322,0.950211864,0.949152542
0.94809322,0.950211864,0.949152542,0.947033898
0.950211864,0.949152542,0.947033898,0.94809322
0.949152542,0.947033898,0.94809322,0.947033898
0.947033898,0.94809322,0.947033898,0.94279661
0.94809322,0.947033898,0.94279661,0.935381356
0.947033898,0.94279661,0.935381356,0.931144068
0.94279661,0.935381356,0.931144068,0.925847458
0.935381356,0.931144068,0.925847458,0.912076271
0.931144068,0.925847458,0.912076271,0.906779661
0.925847458,0.912076271,0.906779661,0.901483051
0.912076271,0.906779661,0.901483051,0.891949153
0.906779661,0.901483051,0.891949153,0.887711864
0.901483051,0.891949153,0.887711864,0.878177966
0.891949153,0.887711864,0.878177966,0.861228814
0.887711864,0.878177966,0.861228814,0.854872881
0.878177966,0.861228814,0.854872881,0.840042373
0.861228814,0.854872881,0.840042373,0.833686441
0.854872881,0.840042373,0.833686441,0.818855932
0.840042373,0.833686441,0.818855932,0.814618644
0.833686441,0.818855932,0.814618644,0.804025424
0.818855932,0.814618644,0.804025424,0.795550847
0.814618644,0.804025424,0.795550847,0.789194915
0.804025424,0.795550847,0.789194915,0.786016949
0.795550847,0.789194915,0.786016949,0.779661017
0.789194915,0.786016949,0.779661017,0.775423729
0.786016949,0.779661017,0.775423729,0.770127119
0.779661017,0.775423729,0.770127119,0.763771186
0.775423729,0.770127119,0.763771186,0.76059322
0.770127119,0.763771186,0.76059322,0.762711864
0.763771186,0.76059322,0.762711864,0.76059322
0.76059322,0.762711864,0.76059322,0.757415254
0.762711864,0.76059322,0.757415254,0.757415254
0.76059322,0.757415254,0.757415254,0.757415254
0.757415254,0.757415254,0.757415254,0.754237288
0.757415254,0.757415254,0.754237288,0.751059322
0.757415254,0.754237288,0.751059322,0.754237288
0.754237288,0.751059322,0.754237288,0.758474576
0.751059322,0.754237288,0.758474576,0.756355932
0.754237288,0.758474576,0.756355932,0.754237288
0.758474576,0.756355932,0.754237288,0.756355932
0.756355932,0.754237288,0.756355932,0.754237288
0.754237288,0.756355932,0.754237288,0.754237288
0.756355932,0.754237288,0.754237288,0.754237288
0.754237288,0.754237288,0.754237288,0.754237288
0.754237288,0.754237288,0.754237288,0.753177966
0.754237288,0.754237288,0.753177966,0.757415254
0.754237288,0.753177966,0.757415254,0.756355932
0.753177966,0.757415254,0.756355932,0.753177966
0.757415254,0.756355932,0.753177966,0.757415254
0.756355932,0.753177966,0.757415254,0.754237288
0.753177966,0.757415254,0.754237288,0.75
0.757415254,0.754237288,0.75,0.751059322
0.754237288,0.75,0.751059322,0.752118644
0.75,0.751059322,0.752118644,0.75
0.751059322,0.752118644,0.75,0.747881356
0.752118644,0.75,0.747881356,0.747881356
0.75,0.747881356,0.747881356,0.746822034
0.747881356,0.747881356,0.746822034,0.747881356
0.747881356,0.746822034,0.747881356,0.748940678
0.746822034,0.747881356,0.748940678,0.745762712
0.747881356,0.748940678,0.745762712,0.73940678
0.748940678,0.745762712,0.73940678,0.738347458
0.745762712,0.73940678,0.738347458,0.743644068
0.73940678,0.738347458,0.743644068,0.73940678
0.738347458,0.743644068,0.73940678,0.737288136
0.743644068,0.73940678,0.737288136,0.73940678
0.73940678,0.737288136,0.73940678,0.73940678
0.737288136,0.73940678,0.73940678,0.734110169
0.73940678,0.73940678,0.734110169,0.73940678
0.73940678,0.734110169,0.73940678,0.733050847
0.734110169,0.73940678,0.733050847,0.731991525
0.73940678,0.733050847,0.731991525,0.735169492
0.733050847,0.731991525,0.735169492,0.734110169
0.731991525,0.735169492,0.734110169,0.733050847
0.735169492,0.734110169,0.733050847,0.734110169
0.734110169,0.733050847,0.734110169,0.735169492
0.733050847,0.734110169,0.735169492,0.730932203
0.734110169,0.735169492,0.730932203,0.735169492
0.735169492,0.730932203,0.735169492,0.733050847
0.730932203,0.735169492,0.733050847,0.728813559
0.735169492,0.733050847,0.728813559,0.728813559
0.733050847,0.728813559,0.728813559,0.728813559
0.728813559,0.728813559,0.728813559,0.735169492
0.728813559,0.728813559,0.735169492,0.733050847
0.728813559,0.735169492,0.733050847,0.738347458
0.735169492,0.733050847,0.738347458,0.742584746
0.733050847,0.738347458,0.742584746,0.746822034
0.738347458,0.742584746,0.746822034,0.747881356
0.742584746,0.746822034,0.747881356,0.745762712
0.746822034,0.747881356,0.745762712,0.75
0.747881356,0.745762712,0.75,0.754237288
0.745762712,0.75,0.754237288,0.75529661
0.75,0.754237288,0.75529661,0.757415254
0.754237288,0.75529661,0.757415254,0.759533898
0.75529661,0.757415254,0.759533898,0.756355932
0.757415254,0.759533898,0.756355932,0.754237288
0.759533898,0.756355932,0.754237288,0.752118644
0.756355932,0.754237288,0.752118644,0.752118644
0.754237288,0.752118644,0.752118644,0.742584746
0.752118644,0.752118644,0.742584746,0.734110169
0.752118644,0.742584746,0.734110169,0.733050847
0.742584746,0.734110169,0.733050847,0.733050847
0.734110169,0.733050847,0.733050847,0.733050847
0.733050847,0.733050847,0.733050847,0.727754237
0.733050847,0.733050847,0.727754237,0.723516949
0.733050847,0.727754237,0.723516949,0.724576271
0.727754237,0.723516949,0.724576271,0.718220339
0.723516949,0.724576271,0.718220339,0.718220339
0.724576271,0.718220339,0.718220339,0.718220339
0.718220339,0.718220339,0.718220339,0.720338983
0.718220339,0.718220339,0.720338983,0.723516949
0.718220339,0.720338983,0.723516949,0.725635593
0.720338983,0.723516949,0.725635593,0.723516949
0.723516949,0.725635593,0.723516949,0.721398305
0.725635593,0.723516949,0.721398305,0.719279661
0.723516949,0.721398305,0.719279661,0.722457627
0.721398305,0.719279661,0.722457627,0.721398305
0.719279661,0.722457627,0.721398305,0.720338983
0.722457627,0.721398305,0.720338983,0.720338983
0.721398305,0.720338983,0.720338983,0.727754237
0.720338983,0.720338983,0.727754237,0.720338983
0.720338983,0.727754237,0.720338983,0.718220339
0.727754237,0.720338983,0.718220339,0.724576271
0.720338983,0.718220339,0.724576271,0.724576271
0.718220339,0.724576271,0.724576271,0.718220339
0.724576271,0.724576271,0.718220339,0.722457627
0.724576271,0.718220339,0.722457627,0.723516949
0.718220339,0.722457627,0.723516949,0.724576271
0.722457627,0.723516949,0.724576271,0.722457627
0.723516949,0.724576271,0.722457627,0.723516949
0.724576271,0.722457627,0.723516949,0.723516949
0.722457627,0.723516949,0.723516949,0.724576271
0.723516949,0.723516949,0.724576271,0.726694915
0.723516949,0.724576271,0.726694915,0.724576271
0.724576271,0.726694915,0.724576271,0.724576271
0.726694915,0.724576271,0.724576271,0.724576271
0.724576271,0.724576271,0.724576271,0.721398305
0.724576271,0.724576271,0.721398305,0.718220339
0.724576271,0.721398305,0.718220339,0.716101695
0.721398305,0.718220339,0.716101695,0.721398305
0.718220339,0.716101695,0.721398305,0.731991525
0.716101695,0.721398305,0.731991525,0.736228814
0.721398305,0.731991525,0.736228814,0.699152542
0.731991525,0.736228814,0.699152542,0.584745763
0.736228814,0.699152542,0.584745763,0.449152542
0.699152542,0.584745763,0.449152542,0.313559322
0.584745763,0.449152542,0.313559322,0.177966102
0.449152542,0.313559322,0.177966102,0.111228814
0.313559322,0.177966102,0.111228814,0.087923729
0.177966102,0.111228814,0.087923729,0.079449153
0.111228814,0.087923729,0.079449153,0.072033898
0.087923729,0.079449153,0.072033898,0.066737288
0.079449153,0.072033898,0.066737288,0.06779661
0.072033898,0.066737288,0.06779661,0.082627119
0.066737288,0.06779661,0.082627119,0.118644068
0.06779661,0.082627119,0.118644068,0.161016949
0.082627119,0.118644068,0.161016949,0.201271186
0.118644068,0.161016949,0.201271186,0.223516949
0.161016949,0.201271186,0.223516949,0.242584746
0.201271186,0.223516949,0.242584746,0.268008475
0.223516949,0.242584746,0.268008475,0.320974576
0.242584746,0.268008475,0.320974576,0.395127119
0.268008475,0.320974576,0.395127119,0.477754237
0.320974576,0.395127119,0.477754237,0.547669492
0.395127119,0.477754237,0.547669492,0.597457627
0.477754237,0.547669492,0.597457627,0.633474576
0.547669492,0.597457627,0.633474576,0.661016949
0.597457627,0.633474576,0.661016949,0.690677966
0.633474576,0.661016949,0.690677966,0.737288136
0.661016949,0.690677966,0.737288136,0.775423729
0.690677966,0.737288136,0.775423729,0.799788136
0.737288136,0.775423729,0.799788136,0.813559322
0.775423729,0.799788136,0.813559322,0.818855932
0.799788136,0.813559322,0.818855932,0.818855932
0.813559322,0.818855932,0.818855932,0.819915254
0.818855932,0.818855932,0.819915254,0.820974576
0.818855932,0.819915254,0.820974576,0.825211864
0.819915254,0.820974576,0.825211864,0.826271186
0.820974576,0.825211864,0.826271186,0.827330508
0.825211864,0.826271186,0.827330508,0.830508475
0.826271186,0.827330508,0.830508475,0.827330508
0.827330508,0.830508475,0.827330508,0.832627119
0.830508475,0.827330508,0.832627119,0.836864407
0.827330508,0.832627119,0.836864407,0.835805085
0.832627119,0.836864407,0.835805085,0.840042373
0.836864407,0.835805085,0.840042373,0.841101695
0.835805085,0.840042373,0.841101695,0.838983051
0.840042373,0.841101695,0.838983051,0.840042373
0.841101695,0.838983051,0.840042373,0.845338983
0.838983051,0.840042373,0.845338983,0.845338983
0.840042373,0.845338983,0.845338983,0.846398305
0.845338983,0.845338983,0.846398305,0.846398305
0.845338983,0.846398305,0.846398305,0.851694915
0.846398305,0.846398305,0.851694915,0.854872881
0.846398305,0.851694915,0.854872881,0.852754237
0.851694915,0.854872881,0.852754237,0.861228814
0.854872881,0.852754237,0.861228814,0.863347458
0.852754237,0.861228814,0.863347458,0.86440678
0.861228814,0.863347458,0.86440678,0.867584746
0.863347458,0.86440678,0.867584746,0.867584746
0.86440678,0.867584746,0.867584746,0.872881356
0.867584746,0.867584746,0.872881356,0.873940678
0.867584746,0.872881356,0.873940678,0.876059322
0.872881356,0.873940678,0.876059322,0.88029661
0.873940678,0.876059322,0.88029661,0.884533898
0.876059322,0.88029661,0.884533898,0.889830508
0.88029661,0.884533898,0.889830508,0.890889831
0.884533898,0.889830508,0.890889831,0.889830508
0.889830508,0.890889831,0.889830508,0.898305085
0.890889831,0.889830508,0.898305085,0.903601695
0.889830508,0.898305085,0.903601695,0.909957627
0.898305085,0.903601695,0.909957627,0.911016949
0.903601695,0.909957627,0.911016949,0.919491525
0.909957627,0.911016949,0.919491525,0.922669492
0.911016949,0.919491525,0.922669492,0.920550847
0.919491525,0.922669492,0.920550847,0.930084746
0.922669492,0.920550847,0.930084746,0.933262712
0.920550847,0.930084746,0.933262712,0.935381356
0.930084746,0.933262712,0.935381356,0.938559322
0.933262712,0.935381356,0.938559322,0.943855932
0.935381356,0.938559322,0.943855932,0.955508475
0.938559322,0.943855932,0.955508475,0.954449153
0.943855932,0.955508475,0.954449153,0.955508475
0.955508475,0.954449153,0.955508475,0.958686441
0.954449153,0.955508475,0.958686441,0.962923729
0.955508475,0.958686441,0.962923729,0.962923729
0.958686441,0.962923729,0.962923729,0.962923729
0.962923729,0.962923729,0.962923729,0.965042373
0.962923729,0.962923729,0.965042373,0.961864407
0.962923729,0.965042373,0.961864407,0.965042373
0.965042373,0.961864407,0.965042373,0.970338983
0.961864407,0.965042373,0.970338983,0.969279661
0.965042373,0.970338983,0.969279661,0.969279661
0.970338983,0.969279661,0.969279661,0.961864407
0.969279661,0.969279661,0.961864407,0.956567797
0.969279661,0.961864407,0.956567797,0.955508475
0.961864407,0.956567797,0.955508475,0.954449153
0.956567797,0.955508475,0.954449153,0.951271186
0.955508475,0.954449153,0.951271186,0.943855932
0.954449153,0.951271186,0.943855932,0.936440678
0.951271186,0.943855932,0.936440678,0.929025424
0.943855932,0.936440678,0.929025424,0.916313559
0.936440678,0.929025424,0.916313559,0.909957627
0.929025424,0.916313559,0.909957627,0.898305085
0.916313559,0.909957627,0.898305085,0.886652542
0.909957627,0.898305085,0.886652542,0.876059322
0.898305085,0.886652542,0.876059322,0.867584746
0.886652542,0.876059322,0.867584746,0.852754237
0.876059322,0.867584746,0.852754237,0.845338983
0.867584746,0.852754237,0.845338983,0.833686441
0.852754237,0.845338983,0.833686441,0.820974576
0.845338983,0.833686441,0.820974576,0.8125
0.833686441,0.820974576,0.8125,0.806144068
0.820974576,0.8125,0.806144068,0.798728814
0.8125,0.806144068,0.798728814,0.789194915
0.806144068,0.798728814,0.789194915,0.786016949
0.798728814,0.789194915,0.786016949,0.783898305
0.789194915,0.786016949,0.783898305,0.774364407
0.786016949,0.783898305,0.774364407,0.770127119
0.783898305,0.774364407,0.770127119,0.771186441
0.774364407,0.770127119,0.771186441,0.768008475
0.770127119,0.771186441,0.768008475,0.764830508
0.771186441,0.768008475,0.764830508,0.764830508
0.768008475,0.764830508,0.764830508,0.762711864
0.764830508,0.764830508,0.762711864,0.761652542
0.764830508,0.762711864,0.761652542,0.764830508
0.762711864,0.761652542,0.764830508,0.759533898
0.761652542,0.764830508,0.759533898,0.761652542
0.764830508,0.759533898,0.761652542,0.762711864
0.759533898,0.761652542,0.762711864,0.761652542
0.761652542,0.762711864,0.761652542,0.759533898
0.762711864,0.761652542,0.759533898,0.761652542
0.761652542,0.759533898,0.761652542,0.764830508
0.759533898,0.761652542,0.764830508,0.771186441
0.761652542,0.764830508,0.771186441,0.775423729
0.764830508,0.771186441,0.775423729,0.784957627
0.771186441,0.775423729,0.784957627,0.793432203
0.775423729,0.784957627,0.793432203,0.796610169
0.784957627,0.793432203,0.796610169,0.80190678
0.793432203,0.796610169,0.80190678,0.8125
0.796610169,0.80190678,0.8125,0.824152542
0.80190678,0.8125,0.824152542,0.832627119
0.8125,0.824152542,0.832627119,0.838983051
0.824152542,0.832627119,0.838983051,0.851694915
0.832627119,0.838983051,0.851694915,0.863347458
0.838983051,0.851694915,0.863347458,0.872881356
0.851694915,0.863347458,0.872881356,0.884533898
0.863347458,0.872881356,0.884533898,0.897245763
0.872881356,0.884533898,0.897245763,0.911016949
0.884533898,0.897245763,0.911016949,0.920550847
0.897245763,0.911016949,0.920550847,0.927966102
0.911016949,0.920550847,0.927966102,0.93220339
0.920550847,0.927966102,0.93220339,0.9375
0.927966102,0.93220339,0.9375,0.931144068
0.93220339,0.9375,0.931144068,0.922669492
0.9375,0.931144068,0.922669492,0.911016949
0.931144068,0.922669492,0.911016949,0.896186441
0.922669492,0.911016949,0.896186441,0.877118644
0.911016949,0.896186441,0.877118644,0.862288136
0.896186441,0.877118644,0.862288136,0.849576271
0.877118644,0.862288136,0.849576271,0.841101695
0.862288136,0.849576271,0.841101695,0.828389831
0.849576271,0.841101695,0.828389831,0.819915254
0.841101695,0.828389831,0.819915254,0.814618644
0.828389831,0.819915254,0.814618644,0.815677966
0.819915254,0.814618644,0.815677966,0.827330508
0.814618644,0.815677966,0.827330508,0.840042373
0.815677966,0.827330508,0.840042373,0.846398305
0.827330508,0.840042373,0.846398305,0.840042373
0.840042373,0.846398305,0.840042373,0.824152542
0.846398305,0.840042373,0.824152542,0.80190678
0.840042373,0.824152542,0.80190678,0.774364407
0.824152542,0.80190678,0.774364407,0.733050847
0.80190678,0.774364407,0.733050847,0.669491525
0.774364407,0.733050847,0.669491525,0.612288136
0.733050847,0.669491525,0.612288136,0.575211864
0.669491525,0.612288136,0.575211864,0.56779661
0.612288136,0.575211864,0.56779661,0.588983051
0.575211864,0.56779661,0.588983051,0.63029661
0.56779661,0.588983051,0.63029661,0.670550847
0.588983051,0.63029661,0.670550847,0.697033898
0.63029661,0.670550847,0.697033898,0.703389831
0.670550847,0.697033898,0.703389831,0.705508475
0.697033898,0.703389831,0.705508475,0.701271186
0.703389831,0.705508475,0.701271186,0.690677966
0.705508475,0.701271186,0.690677966,0.688559322
0.701271186,0.690677966,0.688559322,0.686440678
0.690677966,0.688559322,0.686440678,0.681144068
0.688559322,0.686440678,0.681144068,0.684322034
0.686440678,0.681144068,0.684322034,0.690677966
0.681144068,0.684322034,0.690677966,0.697033898
0.684322034,0.690677966,0.697033898,0.695974576
0.690677966,0.697033898,0.695974576,0.697033898
0.697033898,0.695974576,0.697033898,0.693855932
0.695974576,0.697033898,0.693855932,0.695974576
0.697033898,0.693855932,0.695974576,0.695974576
0.693855932,0.695974576,0.695974576,0.69809322
0.695974576,0.695974576,0.69809322,0.699152542
0.695974576,0.69809322,0.699152542,0.700211864
0.69809322,0.699152542,0.700211864,0.704449153
0.699152542,0.700211864,0.704449153,0.702330508
0.700211864,0.704449153,0.702330508,0.700211864
0.704449153,0.702330508,0.700211864,0.699152542
0.702330508,0.700211864,0.699152542,0.699152542
0.700211864,0.699152542,0.699152542,0.697033898
0.699152542,0.699152542,0.697033898,0.69809322
0.699152542,0.697033898,0.69809322,0.697033898
0.697033898,0.69809322,0.697033898,0.693855932
0.69809322,0.697033898,0.693855932,0.693855932
0.697033898,0.693855932,0.693855932,0.699152542
0.693855932,0.693855932,0.699152542,0.693855932
0.693855932,0.699152542,0.693855932,0.693855932
0.699152542,0.693855932,0.693855932,0.689618644
0.693855932,0.693855932,0.689618644,0.686440678
0.693855932,0.689618644,0.686440678,0.69279661
0.689618644,0.686440678,0.69279661,0.694915254
0.686440678,0.69279661,0.694915254,0.694915254
0.69279661,0.694915254,0.694915254,0.693855932
0.694915254,0.694915254,0.693855932,0.69809322
0.694915254,0.693855932,0.69809322,0.694915254
0.693855932,0.69809322,0.694915254,0.697033898
0.69809322,0.694915254,0.697033898,0.695974576
0.694915254,0.697033898,0.695974576,0.700211864
0.697033898,0.695974576,0.700211864,0.69809322
0.695974576,0.700211864,0.69809322,0.699152542
0.700211864,0.69809322,0.699152542,0.700211864
0.69809322,0.699152542,0.700211864,0.703389831
0.699152542,0.700211864,0.703389831,0.706567797
0.700211864,0.703389831,0.706567797,0.707627119
0.703389831,0.706567797,0.707627119,0.708686441
0.706567797,0.707627119,0.708686441,0.712923729
0.707627119,0.708686441,0.712923729,0.713983051
0.708686441,0.712923729,0.713983051,0.719279661
0.712923729,0.713983051,0.719279661,0.725635593
0.713983051,0.719279661,0.725635593,0.730932203
0.719279661,0.725635593,0.730932203,0.736228814
0.725635593,0.730932203,0.736228814,0.734110169
0.730932203,0.736228814,0.734110169,0.740466102
0.736228814,0.734110169,0.740466102,0.746822034
0.734110169,0.740466102,0.746822034,0.75
0.740466102,0.746822034,0.75,0.75529661
0.746822034,0.75,0.75529661,0.76059322
0.75,0.75529661,0.76059322,0.768008475
0.75529661,0.76059322,0.768008475,0.774364407
0.76059322,0.768008475,0.774364407,0.775423729
0.768008475,0.774364407,0.775423729,0.782838983
0.774364407,0.775423729,0.782838983,0.781779661
0.775423729,0.782838983,0.781779661,0.786016949
0.782838983,0.781779661,0.786016949,0.783898305
0.781779661,0.786016949,0.783898305,0.792372881
0.786016949,0.783898305,0.792372881,0.794491525
0.783898305,0.792372881,0.794491525,0.797669492
0.792372881,0.794491525,0.797669492,0.804025424
0.794491525,0.797669492,0.804025424,0.804025424
0.797669492,0.804025424,0.804025424,0.8125
0.804025424,0.804025424,0.8125,0.810381356
0.804025424,0.8125,0.810381356,0.813559322
0.8125,0.810381356,0.813559322,0.810381356
0.810381356,0.813559322,0.810381356,0.806144068
0.813559322,0.810381356,0.806144068,0.809322034
0.810381356,0.806144068,0.809322034,0.804025424
0.806144068,0.809322034,0.804025424,0.799788136
0.809322034,0.804025424,0.799788136,0.805084746
0.804025424,0.799788136,0.805084746,0.797669492
0.799788136,0.805084746,0.797669492,0.792372881
0.805084746,0.797669492,0.792372881,0.786016949
0.797669492,0.792372881,0.786016949,0.784957627
0.792372881,0.786016949,0.784957627,0.776483051
0.786016949,0.784957627,0.776483051,0.774364407
0.784957627,0.776483051,0.774364407,0.770127119
0.776483051,0.774364407,0.770127119,0.765889831
0.774364407,0.770127119,0.765889831,0.763771186
0.770127119,0.765889831,0.763771186,0.756355932
0.765889831,0.763771186,0.756355932,0.756355932
0.763771186,0.756355932,0.756355932,0.754237288
