0.929025424,0.938559322,0.945974576,0.949152542,0.954449153,0.955508475
0.938559322,0.945974576,0.949152542,0.954449153,0.955508475,0.960805085
0.945974576,0.949152542,0.954449153,0.955508475,0.960805085,0.965042373
0.949152542,0.954449153,0.955508475,0.960805085,0.965042373,0.970338983
0.954449153,0.955508475,0.960805085,0.965042373,0.970338983,0.972457627
0.955508475,0.960805085,0.965042373,0.970338983,0.972457627,0.983050847
0.960805085,0.965042373,0.970338983,0.972457627,0.983050847,0.978813559
0.965042373,0.970338983,0.972457627,0.983050847,0.978813559,0.979872881
0.970338983,0.972457627,0.983050847,0.978813559,0.979872881,0.983050847
0.972457627,0.983050847,0.978813559,0.979872881,0.983050847,0.981991525
0.983050847,0.978813559,0.979872881,0.983050847,0.981991525,0.980932203
0.978813559,0.979872881,0.983050847,0.981991525,0.980932203,0.980932203
0.979872881,0.983050847,0.981991525,0.980932203,0.980932203,0.984110169
0.983050847,0.981991525,0.980932203,0.980932203,0.984110169,0.984110169
0.981991525,0.980932203,0.980932203,0.984110169,0.984110169,0.979872881
0.980932203,0.980932203,0.984110169,0.984110169,0.979872881,0.983050847
0.980932203,0.984110169,0.984110169,0.979872881,0.983050847,0.980932203
0.984110169,0.984110169,0.979872881,0.983050847,0.980932203,0.976694915
0.984110169,0.979872881,0.983050847,0.980932203,0.976694915,0.972457627
0.979872881,0.983050847,0.980932203,0.976694915,0.972457627,0.962923729
0.983050847,0.980932203,0.976694915,0.972457627,0.962923729,0.952330508
0.980932203,0.976694915,0.972457627,0.962923729,0.952330508,0.943855932
0.976694915,0.972457627,0.962923729,0.952330508,0.943855932,0.935381356
0.972457627,0.962923729,0.952330508,0.943855932,0.935381356,0.930084746
0.962923729,0.952330508,0.943855932,0.935381356,0.930084746,0.918432203
0.952330508,0.943855932,0.935381356,0.930084746,0.918432203,0.907838983
0.943855932,0.935381356,0.930084746,0.918432203,0.907838983,0.896186441
0.935381356,0.930084746,0.918432203,0.907838983,0.896186441,0.882415254
0.930084746,0.918432203,0.907838983,0.896186441,0.882415254,0.873940678
0.918432203,0.907838983,0.896186441,0.882415254,0.873940678,0.854872881
0.907838983,0.896186441,0.882415254,0.873940678,0.854872881,0.840042373
0.896186441,0.882415254,0.873940678,0.854872881,0.840042373,0.831567797
0.882415254,0.873940678,0.854872881,0.840042373,0.831567797,0.818855932
0.873940678,0.854872881,0.840042373,0.831567797,0.818855932,0.8125
0.854872881,0.840042373,0.831567797,0.818855932,0.8125,0.802966102
0.840042373,0.831567797,0.818855932,0.8125,0.802966102,0.795550847
0.831567797,0.818855932,0.8125,0.802966102,0.795550847,0.789194915
0.818855932,0.8125,0.802966102,0.795550847,0.789194915,0.780720339
0.8125,0.802966102,0.795550847,0.789194915,0.780720339,0.774364407
0.802966102,0.795550847,0.789194915,0.780720339,0.774364407,0.765889831
0.795550847,0.789194915,0.780720339,0.774364407,0.765889831,0.761652542
0.789194915,0.780720339,0.774364407,0.765889831,0.761652542,0.759533898
0.780720339,0.774364407,0.765889831,0.761652542,0.759533898,0.75529661
0.774364407,0.765889831,0.761652542,0.759533898,0.75529661,0.753177966
0.765889831,0.761652542,0.759533898,0.75529661,0.753177966,0.75529661
0.761652542,0.759533898,0.75529661,0.753177966,0.75529661,0.758474576
0.759533898,0.75529661,0.753177966,0.75529661,0.758474576,0.75
0.75529661,0.753177966,0.75529661,0.758474576,0.75,0.753177966
0.753177966,0.75529661,0.758474576,0.75,0.753177966,0.752118644
0.75529661,0.758474576,0.75,0.753177966,0.752118644,0.757415254
0.758474576,0.75,0.753177966,0.752118644,0.757415254,0.754237288
0.75,0.753177966,0.752118644,0.757415254,0.754237288,0.75529661
0.753177966,0.752118644,0.757415254,0.754237288,0.75529661,0.763771186
0.752118644,0.757415254,0.754237288,0.75529661,0.763771186,0.75529661
0.757415254,0.754237288,0.75529661,0.763771186,0.75529661,0.754237288
0.754237288,0.75529661,0.763771186,0.75529661,0.754237288,0.75529661
0.75529661,0.763771186,0.75529661,0.754237288,0.75529661,0.757415254
0.763771186,0.75529661,0.754237288,0.75529661,0.757415254,0.75529661
0.75529661,0.754237288,0.75529661,0.757415254,0.75529661,0.754237288
0.754237288,0.75529661,0.757415254,0.75529661,0.754237288,0.759533898
0.75529661,0.757415254,0.75529661,0.754237288,0.759533898,0.758474576
0.757415254,0.75529661,0.754237288,0.759533898,0.758474576,0.758474576
0.75529661,0.754237288,0.759533898,0.758474576,0.758474576,0.756355932
0.754237288,0.759533898,0.758474576,0.758474576,0.756355932,0.75529661
0.759533898,0.758474576,0.758474576,0.756355932,0.75529661,0.754237288
0.758474576,0.758474576,0.756355932,0.75529661,0.754237288,0.759533898
0.758474576,0.756355932,0.75529661,0.754237288,0.759533898,0.752118644
0.756355932,0.75529661,0.754237288,0.759533898,0.752118644,0.756355932
0.75529661,0.754237288,0.759533898,0.752118644,0.756355932,0.752118644
0.754237288,0.759533898,0.752118644,0.756355932,0.752118644,0.75529661
0.759533898,0.752118644,0.756355932,0.752118644,0.75529661,0.751059322
0.752118644,0.756355932,0.752118644,0.75529661,0.751059322,0.754237288
0.756355932,0.752118644,0.75529661,0.751059322,0.754237288,0.748940678
0.752118644,0.75529661,0.751059322,0.754237288,0.748940678,0.75
0.75529661,0.751059322,0.754237288,0.748940678,0.75,0.748940678
0.751059322,0.754237288,0.748940678,0.75,0.748940678,0.74470339
0.754237288,0.748940678,0.75,0.748940678,0.74470339,0.748940678
0.748940678,0.75,0.748940678,0.74470339,0.748940678,0.743644068
0.75,0.748940678,0.74470339,0.748940678,0.743644068,0.743644068
0.748940678,0.74470339,0.748940678,0.743644068,0.743644068,0.74470339
0.74470339,0.748940678,0.743644068,0.743644068,0.74470339,0.741525424
0.748940678,0.743644068,0.743644068,0.74470339,0.741525424,0.73940678
0.743644068,0.743644068,0.74470339,0.741525424,0.73940678,0.737288136
0.743644068,0.74470339,0.741525424,0.73940678,0.737288136,0.741525424
0.74470339,0.741525424,0.73940678,0.737288136,0.741525424,0.737288136
0.741525424,0.73940678,0.737288136,0.741525424,0.737288136,0.736228814
0.73940678,0.737288136,0.741525424,0.737288136,0.736228814,0.736228814
0.737288136,0.741525424,0.737288136,0.736228814,0.736228814,0.737288136
0.741525424,0.737288136,0.736228814,0.736228814,0.737288136,0.735169492
0.737288136,0.736228814,0.736228814,0.737288136,0.735169492,0.731991525
0.736228814,0.736228814,0.737288136,0.735169492,0.731991525,0.735169492
0.736228814,0.737288136,0.735169492,0.731991525,0.735169492,0.736228814
0.737288136,0.735169492,0.731991525,0.735169492,0.736228814,0.735169492
0.735169492,0.731991525,0.735169492,0.736228814,0.735169492,0.733050847
0.731991525,0.735169492,0.736228814,0.735169492,0.733050847,0.73940678
0.735169492,0.736228814,0.735169492,0.733050847,0.73940678,0.74470339
0.736228814,0.735169492,0.733050847,0.73940678,0.74470339,0.74470339
0.735169492,0.733050847,0.73940678,0.74470339,0.74470339,0.752118644
0.733050847,0.73940678,0.74470339,0.74470339,0.752118644,0.753177966
0.73940678,0.74470339,0.74470339,0.752118644,0.753177966,0.758474576
0.74470339,0.74470339,0.752118644,0.753177966,0.758474576,0.76059322
0.74470339,0.752118644,0.753177966,0.758474576,0.76059322,0.759533898
0.752118644,0.753177966,0.758474576,0.76059322,0.759533898,0.761652542
0.753177966,0.758474576,0.76059322,0.759533898,0.761652542,0.762711864
0.758474576,0.76059322,0.759533898,0.761652542,0.762711864,0.76059322
0.76059322,0.759533898,0.761652542,0.762711864,0.76059322,0.765889831
0.759533898,0.761652542,0.762711864,0.76059322,0.765889831,0.75529661
0.761652542,0.762711864,0.76059322,0.765889831,0.75529661,0.753177966
0.762711864,0.76059322,0.765889831,0.75529661,0.753177966,0.74470339
0.76059322,0.765889831,0.75529661,0.753177966,0.74470339,0.735169492
0.765889831,0.75529661,0.753177966,0.74470339,0.735169492,0.735169492
0.75529661,0.753177966,0.74470339,0.735169492,0.735169492,0.730932203
0.753177966,0.74470339,0.735169492,0.735169492,0.730932203,0.729872881
0.74470339,0.735169492,0.735169492,0.730932203,0.729872881,0.730932203
0.735169492,0.735169492,0.730932203,0.729872881,0.730932203,0.726694915
0.735169492,0.730932203,0.729872881,0.730932203,0.726694915,0.723516949
0.730932203,0.729872881,0.730932203,0.726694915,0.723516949,0.722457627
0.729872881,0.730932203,0.726694915,0.723516949,0.722457627,0.720338983
0.730932203,0.726694915,0.723516949,0.722457627,0.720338983,0.721398305
0.726694915,0.723516949,0.722457627,0.720338983,0.721398305,0.722457627
0.723516949,0.722457627,0.720338983,0.721398305,0.722457627,0.722457627
0.722457627,0.720338983,0.721398305,0.722457627,0.722457627,0.723516949
0.720338983,0.721398305,0.722457627,0.722457627,0.723516949,0.724576271
0.721398305,0.722457627,0.722457627,0.723516949,0.724576271,0.725635593
0.722457627,0.722457627,0.723516949,0.724576271,0.725635593,0.728813559
0.722457627,0.723516949,0.724576271,0.725635593,0.728813559,0.726694915
0.723516949,0.724576271,0.725635593,0.728813559,0.726694915,0.727754237
0.724576271,0.725635593,0.728813559,0.726694915,0.727754237,0.724576271
0.725635593,0.728813559,0.726694915,0.727754237,0.724576271,0.727754237
0.728813559,0.726694915,0.727754237,0.724576271,0.727754237,0.725635593
0.726694915,0.727754237,0.724576271,0.727754237,0.725635593,0.722457627
0.727754237,0.724576271,0.727754237,0.725635593,0.722457627,0.725635593
0.724576271,0.727754237,0.725635593,0.722457627,0.725635593,0.730932203
0.727754237,0.725635593,0.722457627,0.725635593,0.730932203,0.728813559
0.725635593,0.722457627,0.725635593,0.730932203,0.728813559,0.727754237
0.722457627,0.725635593,0.730932203,0.728813559,0.727754237,0.727754237
0.725635593,0.730932203,0.728813559,0.727754237,0.727754237,0.726694915
0.730932203,0.728813559,0.727754237,0.727754237,0.726694915,0.725635593
0.728813559,0.727754237,0.727754237,0.726694915,0.725635593,0.726694915
0.727754237,0.727754237,0.726694915,0.725635593,0.726694915,0.734110169
0.727754237,0.726694915,0.725635593,0.726694915,0.734110169,0.727754237
0.726694915,0.725635593,0.726694915,0.734110169,0.727754237,0.727754237
0.725635593,0.726694915,0.734110169,0.727754237,0.727754237,0.729872881
0.726694915,0.734110169,0.727754237,0.727754237,0.729872881,0.727754237
0.734110169,0.727754237,0.727754237,0.729872881,0.727754237,0.728813559
0.727754237,0.727754237,0.729872881,0.727754237,0.728813559,0.727754237
0.727754237,0.729872881,0.727754237,0.728813559,0.727754237,0.725635593
0.729872881,0.727754237,0.728813559,0.727754237,0.725635593,0.725635593
0.727754237,0.728813559,0.727754237,0.725635593,0.725635593,0.720338983
0.728813559,0.727754237,0.725635593,0.725635593,0.720338983,0.730932203
0.727754237,0.725635593,0.725635593,0.720338983,0.730932203,0.738347458
0.725635593,0.725635593,0.720338983,0.730932203,0.738347458,0.716101695
0.725635593,0.720338983,0.730932203,0.738347458,0.716101695,0.626059322
0.720338983,0.730932203,0.738347458,0.716101695,0.626059322,0.490466102
0.730932203,0.738347458,0.716101695,0.626059322,0.490466102,0.354872881
0.738347458,0.716101695,0.626059322,0.490466102,0.354872881,0.219279661
0.716101695,0.626059322,0.490466102,0.354872881,0.219279661,0.093220339
0.626059322,0.490466102,0.354872881,0.219279661,0.093220339,0.047669492
0.490466102,0.354872881,0.219279661,0.093220339,0.047669492,0.031779661
0.354872881,0.219279661,0.093220339,0.047669492,0.031779661,0.027542373
0.219279661,0.093220339,0.047669492,0.031779661,0.027542373,0.016949153
0.093220339,0.047669492,0.031779661,0.027542373,0.016949153,0.013771186
0.047669492,0.031779661,0.027542373,0.016949153,0.013771186,0.027542373
0.031779661,0.027542373,0.016949153,0.013771186,0.027542373,0.05190678
0.027542373,0.016949153,0.013771186,0.027542373,0.05190678,0.092161017
0.016949153,0.013771186,0.027542373,0.05190678,0.092161017,0.137711864
0.013771186,0.027542373,0.05190678,0.092161017,0.137711864,0.173728814
0.027542373,0.05190678,0.092161017,0.137711864,0.173728814,0.197033898
0.05190678,0.092161017,0.137711864,0.173728814,0.197033898,0.223516949
0.092161017,0.137711864,0.173728814,0.197033898,0.223516949,0.265889831
0.137711864,0.173728814,0.197033898,0.223516949,0.265889831,0.329449153
0.173728814,0.197033898,0.223516949,0.265889831,0.329449153,0.406779661
0.197033898,0.223516949,0.265889831,0.329449153,0.406779661,0.48940678
0.223516949,0.265889831,0.329449153,0.406779661,0.48940678,0.547669492
0.265889831,0.329449153,0.406779661,0.48940678,0.547669492,0.594279661
0.329449153,0.406779661,0.48940678,0.547669492,0.594279661,0.631355932
0.406779661,0.48940678,0.547669492,0.594279661,0.631355932,0.664194915
0.48940678,0.547669492,0.594279661,0.631355932,0.664194915,0.705508475
0.547669492,0.594279661,0.631355932,0.664194915,0.705508475,0.751059322
0.594279661,0.631355932,0.664194915,0.705508475,0.751059322,0.781779661
0.631355932,0.664194915,0.705508475,0.751059322,0.781779661,0.804025424
0.664194915,0.705508475,0.751059322,0.781779661,0.804025424,0.819915254
0.705508475,0.751059322,0.781779661,0.804025424,0.819915254,0.820974576
0.751059322,0.781779661,0.804025424,0.819915254,0.820974576,0.816737288
0.781779661,0.804025424,0.819915254,0.820974576,0.816737288,0.818855932
0.804025424,0.819915254,0.820974576,0.816737288,0.818855932,0.824152542
0.819915254,0.820974576,0.816737288,0.818855932,0.824152542,0.825211864
0.820974576,0.816737288,0.818855932,0.824152542,0.825211864,0.832627119
0.816737288,0.818855932,0.824152542,0.825211864,0.832627119,0.832627119
0.818855932,0.824152542,0.825211864,0.832627119,0.832627119,0.830508475
0.824152542,0.825211864,0.832627119,0.832627119,0.830508475,0.834745763
0.825211864,0.832627119,0.832627119,0.830508475,0.834745763,0.834745763
0.832627119,0.832627119,0.830508475,0.834745763,0.834745763,0.837923729
0.832627119,0.830508475,0.834745763,0.834745763,0.837923729,0.837923729
0.830508475,0.834745763,0.834745763,0.837923729,0.837923729,0.841101695
0.834745763,0.834745763,0.837923729,0.837923729,0.841101695,0.838983051
0.834745763,0.837923729,0.837923729,0.841101695,0.838983051,0.847457627
0.837923729,0.837923729,0.841101695,0.838983051,0.847457627,0.848516949
0.837923729,0.841101695,0.838983051,0.847457627,0.848516949,0.850635593
0.841101695,0.838983051,0.847457627,0.848516949,0.850635593,0.853813559
0.838983051,0.847457627,0.848516949,0.850635593,0.853813559,0.853813559
0.847457627,0.848516949,0.850635593,0.853813559,0.853813559,0.853813559
0.848516949,0.850635593,0.853813559,0.853813559,0.853813559,0.854872881
0.850635593,0.853813559,0.853813559,0.853813559,0.854872881,0.855932203
0.853813559,0.853813559,0.853813559,0.854872881,0.855932203,0.859110169
0.853813559,0.853813559,0.854872881,0.855932203,0.859110169,0.863347458
0.853813559,0.854872881,0.855932203,0.859110169,0.863347458,0.870762712
0.854872881,0.855932203,0.859110169,0.863347458,0.870762712,0.868644068
0.855932203,0.859110169,0.863347458,0.870762712,0.868644068,0.872881356
0.859110169,0.863347458,0.870762712,0.868644068,0.872881356,0.871822034
0.863347458,0.870762712,0.868644068,0.872881356,0.871822034,0.879237288
0.870762712,0.868644068,0.872881356,0.871822034,0.879237288,0.878177966
0.868644068,0.872881356,0.871822034,0.879237288,0.878177966,0.886652542
0.872881356,0.871822034,0.879237288,0.878177966,0.886652542,0.891949153
0.871822034,0.879237288,0.878177966,0.886652542,0.891949153,0.895127119
0.879237288,0.878177966,0.886652542,0.891949153,0.895127119,0.899364407
0.878177966,0.886652542,0.891949153,0.895127119,0.899364407,0.907838983
0.886652542,0.891949153,0.895127119,0.899364407,0.907838983,0.908898305
0.891949153,0.895127119,0.899364407,0.907838983,0.908898305,0.914194915
0.895127119,0.899364407,0.907838983,0.908898305,0.914194915,0.916313559
0.899364407,0.907838983,0.908898305,0.914194915,0.916313559,0.922669492
0.907838983,0.908898305,0.914194915,0.916313559,0.922669492,0.925847458
0.908898305,0.914194915,0.916313559,0.922669492,0.925847458,0.929025424
0.914194915,0.916313559,0.922669492,0.925847458,0.929025424,0.940677966
0.916313559,0.922669492,0.925847458,0.929025424,0.940677966,0.939618644
0.922669492,0.925847458,0.929025424,0.940677966,0.939618644,0.945974576
0.925847458,0.929025424,0.940677966,0.939618644,0.945974576,0.954449153
0.929025424,0.940677966,0.939618644,0.945974576,0.954449153,0.954449153
0.940677966,0.939618644,0.945974576,0.954449153,0.954449153,0.956567797
0.939618644,0.945974576,0.954449153,0.954449153,0.956567797,0.963983051
0.945974576,0.954449153,0.954449153,0.956567797,0.963983051,0.969279661
0.954449153,0.954449153,0.956567797,0.963983051,0.969279661,0.971398305
0.954449153,0.956567797,0.963983051,0.969279661,0.971398305,0.973516949
0.956567797,0.963983051,0.969279661,0.971398305,0.973516949,0.981991525
0.963983051,0.969279661,0.971398305,0.973516949,0.981991525,0.985169492
0.969279661,0.971398305,0.973516949,0.981991525,0.985169492,0.984110169
0.971398305,0.973516949,0.981991525,0.985169492,0.984110169,0.983050847
0.973516949,0.981991525,0.985169492,0.984110169,0.983050847,0.981991525
0.981991525,0.985169492,0.984110169,0.983050847,0.981991525,0.985169492
0.985169492,0.984110169,0.983050847,0.981991525,0.985169492,0.987288136
0.984110169,0.983050847,0.981991525,0.985169492,0.987288136,0.986228814
0.983050847,0.981991525,0.985169492,0.987288136,0.986228814,0.986228814
0.981991525,0.985169492,0.987288136,0.986228814,0.986228814,0.983050847
0.985169492,0.987288136,0.986228814,0.986228814,0.983050847,0.986228814
0.987288136,0.986228814,0.986228814,0.983050847,0.986228814,0.980932203
0.986228814,0.986228814,0.983050847,0.986228814,0.980932203,0.977754237
0.986228814,0.983050847,0.986228814,0.980932203,0.977754237,0.970338983
0.983050847,0.986228814,0.980932203,0.977754237,0.970338983,0.958686441
0.986228814,0.980932203,0.977754237,0.970338983,0.958686441,0.954449153
0.980932203,0.977754237,0.970338983,0.958686441,0.954449153,0.954449153
0.977754237,0.970338983,0.958686441,0.954449153,0.954449153,0.941737288
0.970338983,0.958686441,0.954449153,0.954449153,0.941737288,0.931144068
0.958686441,0.954449153,0.954449153,0.941737288,0.931144068,0.919491525
0.954449153,0.954449153,0.941737288,0.931144068,0.919491525,0.911016949
0.954449153,0.941737288,0.931144068,0.919491525,0.911016949,0.902542373
0.941737288,0.931144068,0.919491525,0.911016949,0.902542373,0.888771186
0.931144068,0.919491525,0.911016949,0.902542373,0.888771186,0.881355932
0.919491525,0.911016949,0.902542373,0.888771186,0.881355932,0.867584746
0.911016949,0.902542373,0.888771186,0.881355932,0.867584746,0.854872881
0.902542373,0.888771186,0.881355932,0.867584746,0.854872881,0.843220339
0.888771186,0.881355932,0.867584746,0.854872881,0.843220339,0.831567797
0.881355932,0.867584746,0.854872881,0.843220339,0.831567797,0.824152542
0.867584746,0.854872881,0.843220339,0.831567797,0.824152542,0.822033898
0.854872881,0.843220339,0.831567797,0.824152542,0.822033898,0.804025424
0.843220339,0.831567797,0.824152542,0.822033898,0.804025424,0.800847458
0.831567797,0.824152542,0.822033898,0.804025424,0.800847458,0.791313559
0.824152542,0.822033898,0.804025424,0.800847458,0.791313559,0.789194915
0.822033898,0.804025424,0.800847458,0.791313559,0.789194915,0.783898305
0.804025424,0.800847458,0.791313559,0.789194915,0.783898305,0.777542373
0.800847458,0.791313559,0.789194915,0.783898305,0.777542373,0.777542373
0.791313559,0.789194915,0.783898305,0.777542373,0.777542373,0.775423729
0.789194915,0.783898305,0.777542373,0.777542373,0.775423729,0.774364407
0.783898305,0.777542373,0.777542373,0.775423729,0.774364407,0.770127119
0.777542373,0.777542373,0.775423729,0.774364407,0.770127119,0.771186441
0.777542373,0.775423729,0.774364407,0.770127119,0.771186441,0.771186441
0.775423729,0.774364407,0.770127119,0.771186441,0.771186441,0.775423729
0.774364407,0.770127119,0.771186441,0.771186441,0.775423729,0.768008475
0.770127119,0.771186441,0.771186441,0.775423729,0.768008475,0.770127119
0.771186441,0.771186441,0.775423729,0.768008475,0.770127119,0.770127119
0.771186441,0.775423729,0.768008475,0.770127119,0.770127119,0.776483051
0.775423729,0.768008475,0.770127119,0.770127119,0.776483051,0.771186441
0.768008475,0.770127119,0.770127119,0.776483051,0.771186441,0.774364407
0.770127119,0.770127119,0.776483051,0.771186441,0.774364407,0.775423729
0.770127119,0.776483051,0.771186441,0.774364407,0.775423729,0.774364407
0.776483051,0.771186441,0.774364407,0.775423729,0.774364407,0.773305085
0.771186441,0.774364407,0.775423729,0.774364407,0.773305085,0.777542373
0.774364407,0.775423729,0.774364407,0.773305085,0.777542373,0.774364407
0.775423729,0.774364407,0.773305085,0.777542373,0.774364407,0.775423729
0.774364407,0.773305085,0.777542373,0.774364407,0.775423729,0.774364407
0.773305085,0.777542373,0.774364407,0.775423729,0.774364407,0.777542373
0.777542373,0.774364407,0.775423729,0.774364407,0.777542373,0.773305085
0.774364407,0.775423729,0.774364407,0.777542373,0.773305085,0.773305085
0.775423729,0.774364407,0.777542373,0.773305085,0.773305085,0.771186441
0.774364407,0.777542373,0.773305085,0.773305085,0.771186441,0.770127119
0.777542373,0.773305085,0.773305085,0.771186441,0.770127119,0.766949153
0.773305085,0.773305085,0.771186441,0.770127119,0.766949153,0.769067797
0.773305085,0.771186441,0.770127119,0.766949153,0.769067797,0.768008475
0.771186441,0.770127119,0.766949153,0.769067797,0.768008475,0.764830508
0.770127119,0.766949153,0.769067797,0.768008475,0.764830508,0.766949153
0.766949153,0.769067797,0.768008475,0.764830508,0.766949153,0.768008475
0.769067797,0.768008475,0.764830508,0.766949153,0.768008475,0.763771186
0.768008475,0.764830508,0.766949153,0.768008475,0.763771186,0.761652542
0.764830508,0.766949153,0.768008475,0.763771186,0.761652542,0.761652542
0.766949153,0.768008475,0.763771186,0.761652542,0.761652542,0.763771186
0.768008475,0.763771186,0.761652542,0.761652542,0.763771186,0.76059322
0.763771186,0.761652542,0.761652542,0.763771186,0.76059322,0.759533898
0.761652542,0.761652542,0.763771186,0.76059322,0.759533898,0.761652542
0.761652542,0.763771186,0.76059322,0.759533898,0.761652542,0.754237288
0.763771186,0.76059322,0.759533898,0.761652542,0.754237288,0.754237288
0.76059322,0.759533898,0.761652542,0.754237288,0.754237288,0.747881356
0.759533898,0.761652542,0.754237288,0.754237288,0.747881356,0.752118644
0.761652542,0.754237288,0.754237288,0.747881356,0.752118644,0.75
0.754237288,0.754237288,0.747881356,0.752118644,0.75,0.747881356
0.754237288,0.747881356,0.752118644,0.75,0.747881356,0.75
0.747881356,0.752118644,0.75,0.747881356,0.75,0.752118644
0.752118644,0.75,0.747881356,0.75,0.752118644,0.752118644
0.75,0.747881356,0.75,0.752118644,0.752118644,0.754237288
0.747881356,0.75,0.752118644,0.752118644,0.754237288,0.751059322
0.75,0.752118644,0.752118644,0.754237288,0.751059322,0.759533898
0.752118644,0.752118644,0.754237288,0.751059322,0.759533898,0.763771186
0.752118644,0.754237288,0.751059322,0.759533898,0.763771186,0.758474576
0.754237288,0.751059322,0.759533898,0.763771186,0.758474576,0.766949153
0.751059322,0.759533898,0.763771186,0.758474576,0.766949153,0.769067797
0.759533898,0.763771186,0.758474576,0.766949153,0.769067797,0.772245763
0.763771186,0.758474576,0.766949153,0.769067797,0.772245763,0.775423729
0.758474576,0.766949153,0.769067797,0.772245763,0.775423729,0.776483051
0.766949153,0.769067797,0.772245763,0.775423729,0.776483051,0.779661017
0.769067797,0.772245763,0.775423729,0.776483051,0.779661017,0.771186441
0.772245763,0.775423729,0.776483051,0.779661017,0.771186441,0.772245763
0.775423729,0.776483051,0.779661017,0.771186441,0.772245763,0.766949153
0.776483051,0.779661017,0.771186441,0.772245763,0.766949153,0.762711864
0.779661017,0.771186441,0.772245763,0.766949153,0.762711864,0.757415254
0.771186441,0.772245763,0.766949153,0.762711864,0.757415254,0.752118644
0.772245763,0.766949153,0.762711864,0.757415254,0.752118644,0.752118644
0.766949153,0.762711864,0.757415254,0.752118644,0.752118644,0.752118644
0.762711864,0.757415254,0.752118644,0.752118644,0.752118644,0.748940678
0.757415254,0.752118644,0.752118644,0.752118644,0.748940678,0.743644068
0.752118644,0.752118644,0.752118644,0.748940678,0.743644068,0.738347458
0.752118644,0.752118644,0.748940678,0.743644068,0.738347458,0.734110169
0.752118644,0.748940678,0.743644068,0.738347458,0.734110169,0.737288136
0.748940678,0.743644068,0.738347458,0.734110169,0.737288136,0.733050847
0.743644068,0.738347458,0.734110169,0.737288136,0.733050847,0.736228814
0.738347458,0.734110169,0.737288136,0.733050847,0.736228814,0.735169492
0.734110169,0.737288136,0.733050847,0.736228814,0.735169492,0.733050847
0.737288136,0.733050847,0.736228814,0.735169492,0.733050847,0.734110169
0.733050847,0.736228814,0.735169492,0.733050847,0.734110169,0.735169492
0.736228814,0.735169492,0.733050847,0.734110169,0.735169492,0.735169492
0.735169492,0.733050847,0.734110169,0.735169492,0.735169492,0.729872881
0.733050847,0.734110169,0.735169492,0.735169492,0.729872881,0.728813559
0.734110169,0.735169492,0.735169492,0.729872881,0.728813559,0.728813559
0.735169492,0.735169492,0.729872881,0.728813559,0.728813559,0.727754237
0.735169492,0.729872881,0.728813559,0.728813559,0.727754237,0.733050847
0.729872881,0.728813559,0.728813559,0.727754237,0.733050847,0.734110169
0.728813559,0.728813559,0.727754237,0.733050847,0.734110169,0.729872881
0.728813559,0.727754237,0.733050847,0.734110169,0.729872881,0.731991525
0.727754237,0.733050847,0.734110169,0.729872881,0.731991525,0.729872881
0.733050847,0.734110169,0.729872881,0.731991525,0.729872881,0.728813559
0.734110169,0.729872881,0.731991525,0.729872881,0.728813559,0.731991525
0.729872881,0.731991525,0.729872881,0.728813559,0.731991525,0.730932203
0.731991525,0.729872881,0.728813559,0.731991525,0.730932203,0.729872881
0.729872881,0.728813559,0.731991525,0.730932203,0.729872881,0.734110169
0.728813559,0.731991525,0.730932203,0.729872881,0.734110169,0.729872881
0.731991525,0.730932203,0.729872881,0.734110169,0.729872881,0.730932203
0.730932203,0.729872881,0.734110169,0.729872881,0.730932203,0.730932203
0.729872881,0.734110169,0.729872881,0.730932203,0.730932203,0.730932203
0.734110169,0.729872881,0.730932203,0.730932203,0.730932203,0.729872881
0.729872881,0.730932203,0.730932203,0.730932203,0.729872881,0.729872881
0.730932203,0.730932203,0.730932203,0.729872881,0.729872881,0.729872881
0.730932203,0.730932203,0.729872881,0.729872881,0.729872881,0.734110169
0.730932203,0.729872881,0.729872881,0.729872881,0.734110169,0.730932203
0.729872881,0.729872881,0.729872881,0.734110169,0.730932203,0.726694915
0.729872881,0.729872881,0.734110169,0.730932203,0.726694915,0.728813559
0.729872881,0.734110169,0.730932203,0.726694915,0.728813559,0.724576271
0.734110169,0.730932203,0.726694915,0.728813559,0.724576271,0.733050847
0.730932203,0.726694915,0.728813559,0.724576271,0.733050847,0.735169492
0.726694915,0.728813559,0.724576271,0.733050847,0.735169492,0.722457627
0.728813559,0.724576271,0.733050847,0.735169492,0.722457627,0.643008475
0.724576271,0.733050847,0.735169492,0.722457627,0.643008475,0.507415254
0.733050847,0.735169492,0.722457627,0.643008475,0.507415254,0.371822034
0.735169492,0.722457627,0.643008475,0.507415254,0.371822034,0.236228814
0.722457627,0.643008475,0.507415254,0.371822034,0.236228814,0.121822034
0.643008475,0.507415254,0.371822034,0.236228814,0.121822034,0.074152542
0.507415254,0.371822034,0.236228814,0.121822034,0.074152542,0.056144068
0.371822034,0.236228814,0.121822034,0.074152542,0.056144068,0.041313559
0.236228814,0.121822034,0.074152542,0.056144068,0.041313559,0.032838983
0.121822034,0.074152542,0.056144068,0.041313559,0.032838983,0.041313559
0.074152542,0.056144068,0.041313559,0.032838983,0.041313559,0.044491525
0.056144068,0.041313559,0.032838983,0.041313559,0.044491525,0.0625
0.041313559,0.032838983,0.041313559,0.044491525,0.0625,0.102754237
0.032838983,0.041313559,0.044491525,0.0625,0.102754237,0.143008475
0.041313559,0.044491525,0.0625,0.102754237,0.143008475,0.184322034
0.044491525,0.0625,0.102754237,0.143008475,0.184322034,0.203389831
0.0625,0.102754237,0.143008475,0.184322034,0.203389831,0.229872881
0.102754237,0.143008475,0.184322034,0.203389831,0.229872881,0.258474576
0.143008475,0.184322034,0.203389831,0.229872881,0.258474576,0.319915254
0.184322034,0.203389831,0.229872881,0.258474576,0.319915254,0.395127119
0.203389831,0.229872881,0.258474576,0.319915254,0.395127119,0.479872881
0.229872881,0.258474576,0.319915254,0.395127119,0.479872881,0.542372881
0.258474576,0.319915254,0.395127119,0.479872881,0.542372881,0.590042373
0.319915254,0.395127119,0.479872881,0.542372881,0.590042373,0.631355932
0.395127119,0.479872881,0.542372881,0.590042373,0.631355932,0.663135593
0.479872881,0.542372881,0.590042373,0.631355932,0.663135593,0.699152542
0.542372881,0.590042373,0.631355932,0.663135593,0.699152542,0.741525424
0.590042373,0.631355932,0.663135593,0.699152542,0.741525424,0.778601695
0.631355932,0.663135593,0.699152542,0.741525424,0.778601695,0.800847458
0.663135593,0.699152542,0.741525424,0.778601695,0.800847458,0.8125
0.699152542,0.741525424,0.778601695,0.800847458,0.8125,0.816737288
0.741525424,0.778601695,0.800847458,0.8125,0.816737288,0.815677966
0.778601695,0.800847458,0.8125,0.816737288,0.815677966,0.820974576
0.800847458,0.8125,0.816737288,0.815677966,0.820974576,0.815677966
0.8125,0.816737288,0.815677966,0.820974576,0.815677966,0.820974576
0.816737288,0.815677966,0.820974576,0.815677966,0.820974576,0.819915254
0.815677966,0.820974576,0.815677966,0.820974576,0.819915254,0.825211864
0.820974576,0.815677966,0.820974576,0.819915254,0.825211864,0.82309322
0.815677966,0.820974576,0.819915254,0.825211864,0.82309322,0.830508475
0.820974576,0.819915254,0.825211864,0.82309322,0.830508475,0.830508475
0.819915254,0.825211864,0.82309322,0.830508475,0.830508475,0.831567797
0.825211864,0.82309322,0.830508475,0.830508475,0.831567797,0.833686441
0.82309322,0.830508475,0.830508475,0.831567797,0.833686441,0.833686441
0.830508475,0.830508475,0.831567797,0.833686441,0.833686441,0.834745763
0.830508475,0.831567797,0.833686441,0.833686441,0.834745763,0.840042373
0.831567797,0.833686441,0.833686441,0.834745763,0.840042373,0.838983051
0.833686441,0.833686441,0.834745763,0.840042373,0.838983051,0.841101695
0.833686441,0.834745763,0.840042373,0.838983051,0.841101695,0.845338983
0.834745763,0.840042373,0.838983051,0.841101695,0.845338983,0.847457627
0.840042373,0.838983051,0.841101695,0.845338983,0.847457627,0.850635593
0.838983051,0.841101695,0.845338983,0.847457627,0.850635593,0.858050847
0.841101695,0.845338983,0.847457627,0.850635593,0.858050847,0.858050847
0.845338983,0.847457627,0.850635593,0.858050847,0.858050847,0.850635593
0.847457627,0.850635593,0.858050847,0.858050847,0.850635593,0.856991525
0.850635593,0.858050847,0.858050847,0.850635593,0.856991525,0.858050847
0.858050847,0.858050847,0.850635593,0.856991525,0.858050847,0.858050847
0.858050847,0.850635593,0.856991525,0.858050847,0.858050847,0.863347458
0.850635593,0.856991525,0.858050847,0.858050847,0.863347458,0.872881356
0.856991525,0.858050847,0.858050847,0.863347458,0.872881356,0.873940678
0.858050847,0.858050847,0.863347458,0.872881356,0.873940678,0.876059322
0.858050847,0.863347458,0.872881356,0.873940678,0.876059322,0.882415254
0.863347458,0.872881356,0.873940678,0.876059322,0.882415254,0.888771186
0.872881356,0.873940678,0.876059322,0.882415254,0.888771186,0.886652542
0.873940678,0.876059322,0.882415254,0.888771186,0.886652542,0.890889831
0.876059322,0.882415254,0.888771186,0.886652542,0.890889831,0.897245763
0.882415254,0.888771186,0.886652542,0.890889831,0.897245763,0.899364407
0.888771186,0.886652542,0.890889831,0.897245763,0.899364407,0.906779661
0.886652542,0.890889831,0.897245763,0.899364407,0.906779661,0.913135593
0.890889831,0.897245763,0.899364407,0.906779661,0.913135593,0.909957627
0.897245763,0.899364407,0.906779661,0.913135593,0.909957627,0.917372881
0.899364407,0.906779661,0.913135593,0.909957627,0.917372881,0.923728814
0.906779661,0.913135593,0.909957627,0.917372881,0.923728814,0.925847458
0.913135593,0.909957627,0.917372881,0.923728814,0.925847458,0.930084746
0.909957627,0.917372881,0.923728814,0.925847458,0.930084746,0.931144068
0.917372881,0.923728814,0.925847458,0.930084746,0.931144068,0.936440678
0.923728814,0.925847458,0.930084746,0.931144068,0.936440678,0.94279661
0.925847458,0.930084746,0.931144068,0.936440678,0.94279661,0.949152542
0.930084746,0.931144068,0.936440678,0.94279661,0.949152542,0.953389831
0.931144068,0.936440678,0.94279661,0.949152542,0.953389831,0.955508475
0.936440678,0.94279661,0.949152542,0.953389831,0.955508475,0.958686441
0.94279661,0.949152542,0.953389831,0.955508475,0.958686441,0.957627119
0.949152542,0.953389831,0.955508475,0.958686441,0.957627119,0.962923729
0.953389831,0.955508475,0.958686441,0.957627119,0.962923729,0.970338983
0.955508475,0.958686441,0.957627119,0.962923729,0.970338983,0.970338983
0.958686441,0.957627119,0.962923729,0.970338983,0.970338983,0.974576271
0.957627119,0.962923729,0.970338983,0.970338983,0.974576271,0.975635593
0.962923729,0.970338983,0.970338983,0.974576271,0.975635593,0.973516949
0.970338983,0.970338983,0.974576271,0.975635593,0.973516949,0.979872881
0.970338983,0.974576271,0.975635593,0.973516949,0.979872881,0.973516949
0.974576271,0.975635593,0.973516949,0.979872881,0.973516949,0.974576271
0.975635593,0.973516949,0.979872881,0.973516949,0.974576271,0.972457627
0.973516949,0.979872881,0.973516949,0.974576271,0.972457627,0.973516949
0.979872881,0.973516949,0.974576271,0.972457627,0.973516949,0.968220339
0.973516949,0.974576271,0.972457627,0.973516949,0.968220339,0.968220339
0.974576271,0.972457627,0.973516949,0.968220339,0.968220339,0.966101695
0.972457627,0.973516949,0.968220339,0.968220339,0.966101695,0.956567797
0.973516949,0.968220339,0.968220339,0.966101695,0.956567797,0.952330508
0.968220339,0.968220339,0.966101695,0.956567797,0.952330508,0.945974576
0.968220339,0.966101695,0.956567797,0.952330508,0.945974576,0.933262712
0.966101695,0.956567797,0.952330508,0.945974576,0.933262712,0.921610169
0.956567797,0.952330508,0.945974576,0.933262712,0.921610169,0.908898305
0.952330508,0.945974576,0.933262712,0.921610169,0.908898305,0.902542373
0.945974576,0.933262712,0.921610169,0.908898305,0.902542373,0.891949153
0.933262712,0.921610169,0.908898305,0.902542373,0.891949153,0.884533898
0.921610169,0.908898305,0.902542373,0.891949153,0.884533898,0.872881356
0.908898305,0.902542373,0.891949153,0.884533898,0.872881356,0.858050847
0.902542373,0.891949153,0.884533898,0.872881356,0.858050847,0.842161017
0.891949153,0.884533898,0.872881356,0.858050847,0.842161017,0.835805085
0.884533898,0.872881356,0.858050847,0.842161017,0.835805085,0.826271186
0.872881356,0.858050847,0.842161017,0.835805085,0.826271186,0.815677966
0.858050847,0.842161017,0.835805085,0.826271186,0.815677966,0.804025424
0.842161017,0.835805085,0.826271186,0.815677966,0.804025424,0.799788136
0.835805085,0.826271186,0.815677966,0.804025424,0.799788136,0.788135593
0.826271186,0.815677966,0.804025424,0.799788136,0.788135593,0.789194915
0.815677966,0.804025424,0.799788136,0.788135593,0.789194915,0.786016949
0.804025424,0.799788136,0.788135593,0.789194915,0.786016949,0.778601695
0.799788136,0.788135593,0.789194915,0.786016949,0.778601695,0.772245763
0.788135593,0.789194915,0.786016949,0.778601695,0.772245763,0.771186441
0.789194915,0.786016949,0.778601695,0.772245763,0.771186441,0.768008475
0.786016949,0.778601695,0.772245763,0.771186441,0.768008475,0.769067797
0.778601695,0.772245763,0.771186441,0.768008475,0.769067797,0.766949153
0.772245763,0.771186441,0.768008475,0.769067797,0.766949153,0.763771186
0.771186441,0.768008475,0.769067797,0.766949153,0.763771186,0.762711864
0.768008475,0.769067797,0.766949153,0.763771186,0.762711864,0.765889831
0.769067797,0.766949153,0.763771186,0.762711864,0.765889831,0.762711864
0.766949153,0.763771186,0.762711864,0.765889831,0.762711864,0.763771186
0.763771186,0.762711864,0.765889831,0.762711864,0.763771186,0.765889831
0.762711864,0.765889831,0.762711864,0.763771186,0.765889831,0.766949153
0.765889831,0.762711864,0.763771186,0.765889831,0.766949153,0.769067797
0.762711864,0.763771186,0.765889831,0.766949153,0.769067797,0.764830508
0.763771186,0.765889831,0.766949153,0.769067797,0.764830508,0.766949153
0.765889831,0.766949153,0.769067797,0.764830508,0.766949153,0.769067797
0.766949153,0.769067797,0.764830508,0.766949153,0.769067797,0.768008475
0.769067797,0.764830508,0.766949153,0.769067797,0.768008475,0.770127119
0.764830508,0.766949153,0.769067797,0.768008475,0.770127119,0.766949153
0.766949153,0.769067797,0.768008475,0.770127119,0.766949153,0.763771186
0.769067797,0.768008475,0.770127119,0.766949153,0.763771186,0.765889831
0.768008475,0.770127119,0.766949153,0.763771186,0.765889831,0.771186441
0.770127119,0.766949153,0.763771186,0.765889831,0.771186441,0.770127119
0.766949153,0.763771186,0.765889831,0.771186441,0.770127119,0.762711864
0.763771186,0.765889831,0.771186441,0.770127119,0.762711864,0.766949153
0.765889831,0.771186441,0.770127119,0.762711864,0.766949153,0.769067797
0.771186441,0.770127119,0.762711864,0.766949153,0.769067797,0.762711864
0.770127119,0.762711864,0.766949153,0.769067797,0.762711864,0.762711864
0.762711864,0.766949153,0.769067797,0.762711864,0.762711864,0.759533898
0.766949153,0.769067797,0.762711864,0.762711864,0.759533898,0.758474576
0.769067797,0.762711864,0.762711864,0.759533898,0.758474576,0.759533898
0.762711864,0.762711864,0.759533898,0.758474576,0.759533898,0.758474576
0.762711864,0.759533898,0.758474576,0.759533898,0.758474576,0.758474576
0.759533898,0.758474576,0.759533898,0.758474576,0.758474576,0.757415254
0.758474576,0.759533898,0.758474576,0.758474576,0.757415254,0.757415254
0.759533898,0.758474576,0.758474576,0.757415254,0.757415254,0.754237288
0.758474576,0.758474576,0.757415254,0.757415254,0.754237288,0.752118644
0.758474576,0.757415254,0.757415254,0.754237288,0.752118644,0.75
0.757415254,0.757415254,0.754237288,0.752118644,0.75,0.751059322
0.757415254,0.754237288,0.752118644,0.75,0.751059322,0.748940678
0.754237288,0.752118644,0.75,0.751059322,0.748940678,0.745762712
0.752118644,0.75,0.751059322,0.748940678,0.745762712,0.747881356
0.75,0.751059322,0.748940678,0.745762712,0.747881356,0.748940678
0.751059322,0.748940678,0.745762712,0.747881356,0.748940678,0.747881356
0.748940678,0.745762712,0.747881356,0.748940678,0.747881356,0.745762712
0.745762712,0.747881356,0.748940678,0.747881356,0.745762712,0.743644068
0.747881356,0.748940678,0.747881356,0.745762712,0.743644068,0.740466102
0.748940678,0.747881356,0.745762712,0.743644068,0.740466102,0.741525424
0.747881356,0.745762712,0.743644068,0.740466102,0.741525424,0.741525424
0.745762712,0.743644068,0.740466102,0.741525424,0.741525424,0.742584746
0.743644068,0.740466102,0.741525424,0.741525424,0.742584746,0.738347458
0.740466102,0.741525424,0.741525424,0.742584746,0.738347458,0.73940678
0.741525424,0.741525424,0.742584746,0.738347458,0.73940678,0.745762712
0.741525424,0.742584746,0.738347458,0.73940678,0.745762712,0.742584746
0.742584746,0.738347458,0.73940678,0.745762712,0.742584746,0.73940678
0.738347458,0.73940678,0.745762712,0.742584746,0.73940678,0.738347458
0.73940678,0.745762712,0.742584746,0.73940678,0.738347458,0.743644068
0.745762712,0.742584746,0.73940678,0.738347458,0.743644068,0.746822034
0.742584746,0.73940678,0.738347458,0.743644068,0.746822034,0.751059322
0.73940678,0.738347458,0.743644068,0.746822034,0.751059322,0.756355932
0.738347458,0.743644068,0.746822034,0.751059322,0.756355932,0.756355932
0.743644068,0.746822034,0.751059322,0.756355932,0.756355932,0.757415254
0.746822034,0.751059322,0.756355932,0.756355932,0.757415254,0.766949153
0.751059322,0.756355932,0.756355932,0.757415254,0.766949153,0.768008475
0.756355932,0.756355932,0.757415254,0.766949153,0.768008475,0.769067797
0.756355932,0.757415254,0.766949153,0.768008475,0.769067797,0.765889831
0.757415254,0.766949153,0.768008475,0.769067797,0.765889831,0.763771186
0.766949153,0.768008475,0.769067797,0.765889831,0.763771186,0.763771186
0.768008475,0.769067797,0.765889831,0.763771186,0.763771186,0.762711864
0.769067797,0.765889831,0.763771186,0.763771186,0.762711864,0.757415254
0.765889831,0.763771186,0.763771186,0.762711864,0.757415254,0.748940678
0.763771186,0.763771186,0.762711864,0.757415254,0.748940678,0.74470339
0.763771186,0.762711864,0.757415254,0.748940678,0.74470339,0.738347458
0.762711864,0.757415254,0.748940678,0.74470339,0.738347458,0.736228814
0.757415254,0.748940678,0.74470339,0.738347458,0.736228814,0.736228814
0.748940678,0.74470339,0.738347458,0.736228814,0.736228814,0.731991525
0.74470339,0.738347458,0.736228814,0.736228814,0.731991525,0.730932203
0.738347458,0.736228814,0.736228814,0.731991525,0.730932203,0.725635593
0.736228814,0.736228814,0.731991525,0.730932203,0.725635593,0.728813559
0.736228814,0.731991525,0.730932203,0.725635593,0.728813559,0.727754237
0.731991525,0.730932203,0.725635593,0.728813559,0.727754237,0.722457627
0.730932203,0.725635593,0.728813559,0.727754237,0.722457627,0.728813559
0.725635593,0.728813559,0.727754237,0.722457627,0.728813559,0.730932203
0.728813559,0.727754237,0.722457627,0.728813559,0.730932203,0.733050847
0.727754237,0.722457627,0.728813559,0.730932203,0.733050847,0.733050847
0.722457627,0.728813559,0.730932203,0.733050847,0.733050847,0.733050847
0.728813559,0.730932203,0.733050847,0.733050847,0.733050847,0.730932203
0.730932203,0.733050847,0.733050847,0.733050847,0.730932203,0.733050847
0.733050847,0.733050847,0.733050847,0.730932203,0.733050847,0.727754237
0.733050847,0.733050847,0.730932203,0.733050847,0.727754237,0.727754237
0.733050847,0.730932203,0.733050847,0.727754237,0.727754237,0.723516949
0.730932203,0.733050847,0.727754237,0.727754237,0.723516949,0.730932203
0.733050847,0.727754237,0.727754237,0.723516949,0.730932203,0.724576271
0.727754237,0.727754237,0.723516949,0.730932203,0.724576271,0.728813559
0.727754237,0.723516949,0.730932203,0.724576271,0.728813559,0.733050847
0.723516949,0.730932203,0.724576271,0.728813559,0.733050847,0.729872881
0.730932203,0.724576271,0.728813559,0.733050847,0.729872881,0.729872881
0.724576271,0.728813559,0.733050847,0.729872881,0.729872881,0.727754237
0.728813559,0.733050847,0.729872881,0.729872881,0.727754237,0.731991525
0.733050847,0.729872881,0.729872881,0.727754237,0.731991525,0.725635593
0.729872881,0.729872881,0.727754237,0.731991525,0.725635593,0.726694915
0.729872881,0.727754237,0.731991525,0.725635593,0.726694915,0.725635593
0.727754237,0.731991525,0.725635593,0.726694915,0.725635593,0.725635593
0.731991525,0.725635593,0.726694915,0.725635593,0.725635593,0.727754237
0.725635593,0.726694915,0.725635593,0.725635593,0.727754237,0.727754237
0.726694915,0.725635593,0.725635593,0.727754237,0.727754237,0.726694915
0.725635593,0.725635593,0.727754237,0.727754237,0.726694915,0.728813559
0.725635593,0.727754237,0.727754237,0.726694915,0.728813559,0.726694915
0.727754237,0.727754237,0.726694915,0.728813559,0.726694915,0.727754237
0.727754237,0.726694915,0.728813559,0.726694915,0.727754237,0.725635593
0.726694915,0.728813559,0.726694915,0.727754237,0.725635593,0.720338983
0.728813559,0.726694915,0.727754237,0.725635593,0.720338983,0.725635593
0.726694915,0.727754237,0.725635593,0.720338983,0.725635593,0.735169492
0.727754237,0.725635593,0.720338983,0.725635593,0.735169492,0.733050847
0.725635593,0.720338983,0.725635593,0.735169492,0.733050847,0.683262712
0.720338983,0.725635593,0.735169492,0.733050847,0.683262712,0.566737288
0.725635593,0.735169492,0.733050847,0.683262712,0.566737288,0.431144068
0.735169492,0.733050847,0.683262712,0.566737288,0.431144068,0.295550847
0.733050847,0.683262712,0.566737288,0.431144068,0.295550847,0.159957627
0.683262712,0.566737288,0.431144068,0.295550847,0.159957627,0.104872881
0.566737288,0.431144068,0.295550847,0.159957627,0.104872881,0.087923729
0.431144068,0.295550847,0.159957627,0.104872881,0.087923729,0.069915254
0.295550847,0.159957627,0.104872881,0.087923729,0.069915254,0.065677966
0.159957627,0.104872881,0.087923729,0.069915254,0.065677966,0.056144068
0.104872881,0.087923729,0.069915254,0.065677966,0.056144068,0.060381356
0.087923729,0.069915254,0.065677966,0.056144068,0.060381356,0.077330508
0.069915254,0.065677966,0.056144068,0.060381356,0.077330508,0.103813559
0.065677966,0.056144068,0.060381356,0.077330508,0.103813559,0.140889831
0.056144068,0.060381356,0.077330508,0.103813559,0.140889831,0.177966102
0.060381356,0.077330508,0.103813559,0.140889831,0.177966102,0.201271186
0.077330508,0.103813559,0.140889831,0.177966102,0.201271186,0.218220339
0.103813559,0.140889831,0.177966102,0.201271186,0.218220339,0.242584746
0.140889831,0.177966102,0.201271186,0.218220339,0.242584746,0.289194915
0.177966102,0.201271186,0.218220339,0.242584746,0.289194915,0.358050847
0.201271186,0.218220339,0.242584746,0.289194915,0.358050847,0.434322034
0.218220339,0.242584746,0.289194915,0.358050847,0.434322034,0.51059322
0.242584746,0.289194915,0.358050847,0.434322034,0.51059322,0.565677966
0.289194915,0.358050847,0.434322034,0.51059322,0.565677966,0.603813559
0.358050847,0.434322034,0.51059322,0.565677966,0.603813559,0.639830508
0.434322034,0.51059322,0.565677966,0.603813559,0.639830508,0.669491525
0.51059322,0.565677966,0.603813559,0.639830508,0.669491525,0.705508475
0.565677966,0.603813559,0.639830508,0.669491525,0.705508475,0.746822034
0.603813559,0.639830508,0.669491525,0.705508475,0.746822034,0.777542373
0.639830508,0.669491525,0.705508475,0.746822034,0.777542373,0.797669492
0.669491525,0.705508475,0.746822034,0.777542373,0.797669492,0.810381356
0.705508475,0.746822034,0.777542373,0.797669492,0.810381356,0.811440678
0.746822034,0.777542373,0.797669492,0.810381356,0.811440678,0.8125
0.777542373,0.797669492,0.810381356,0.811440678,0.8125,0.814618644
0.797669492,0.810381356,0.811440678,0.8125,0.814618644,0.813559322
0.810381356,0.811440678,0.8125,0.814618644,0.813559322,0.814618644
0.811440678,0.8125,0.814618644,0.813559322,0.814618644,0.819915254
0.8125,0.814618644,0.813559322,0.814618644,0.819915254,0.818855932
0.814618644,0.813559322,0.814618644,0.819915254,0.818855932,0.825211864
0.813559322,0.814618644,0.819915254,0.818855932,0.825211864,0.830508475
0.814618644,0.819915254,0.818855932,0.825211864,0.830508475,0.830508475
0.819915254,0.818855932,0.825211864,0.830508475,0.830508475,0.828389831
0.818855932,0.825211864,0.830508475,0.830508475,0.828389831,0.831567797
0.825211864,0.830508475,0.830508475,0.828389831,0.831567797,0.831567797
0.830508475,0.830508475,0.828389831,0.831567797,0.831567797,0.832627119
0.830508475,0.828389831,0.831567797,0.831567797,0.832627119,0.832627119
0.828389831,0.831567797,0.831567797,0.832627119,0.832627119,0.835805085
0.831567797,0.831567797,0.832627119,0.832627119,0.835805085,0.838983051
0.831567797,0.832627119,0.832627119,0.835805085,0.838983051,0.842161017
0.832627119,0.832627119,0.835805085,0.838983051,0.842161017,0.842161017
0.832627119,0.835805085,0.838983051,0.842161017,0.842161017,0.846398305
0.835805085,0.838983051,0.842161017,0.842161017,0.846398305,0.848516949
0.838983051,0.842161017,0.842161017,0.846398305,0.848516949,0.850635593
0.842161017,0.842161017,0.846398305,0.848516949,0.850635593,0.848516949
0.842161017,0.846398305,0.848516949,0.850635593,0.848516949,0.853813559
0.846398305,0.848516949,0.850635593,0.848516949,0.853813559,0.859110169
0.848516949,0.850635593,0.848516949,0.853813559,0.859110169,0.856991525
0.850635593,0.848516949,0.853813559,0.859110169,0.856991525,0.863347458
0.848516949,0.853813559,0.859110169,0.856991525,0.863347458,0.872881356
0.853813559,0.859110169,0.856991525,0.863347458,0.872881356,0.867584746
0.859110169,0.856991525,0.863347458,0.872881356,0.867584746,0.875
0.856991525,0.863347458,0.872881356,0.867584746,0.875,0.875
0.863347458,0.872881356,0.867584746,0.875,0.875,0.879237288
0.872881356,0.867584746,0.875,0.875,0.879237288,0.881355932
0.867584746,0.875,0.875,0.879237288,0.881355932,0.890889831
0.875,0.875,0.879237288,0.881355932,0.890889831,0.893008475
0.875,0.879237288,0.881355932,0.890889831,0.893008475,0.896186441
0.879237288,0.881355932,0.890889831,0.893008475,0.896186441,0.897245763
0.881355932,0.890889831,0.893008475,0.896186441,0.897245763,0.903601695
0.890889831,0.893008475,0.896186441,0.897245763,0.903601695,0.907838983
0.893008475,0.896186441,0.897245763,0.903601695,0.907838983,0.906779661
0.896186441,0.897245763,0.903601695,0.907838983,0.906779661,0.917372881
0.897245763,0.903601695,0.907838983,0.906779661,0.917372881,0.917372881
0.903601695,0.907838983,0.906779661,0.917372881,0.917372881,0.923728814
0.907838983,0.906779661,0.917372881,0.917372881,0.923728814,0.929025424
0.906779661,0.917372881,0.917372881,0.923728814,0.929025424,0.930084746
0.917372881,0.917372881,0.923728814,0.929025424,0.930084746,0.939618644
0.917372881,0.923728814,0.929025424,0.930084746,0.939618644,0.941737288
0.923728814,0.929025424,0.930084746,0.939618644,0.941737288,0.94279661
0.929025424,0.930084746,0.939618644,0.941737288,0.94279661,0.947033898
0.930084746,0.939618644,0.941737288,0.94279661,0.947033898,0.950211864
0.939618644,0.941737288,0.94279661,0.947033898,0.950211864,0.953389831
0.941737288,0.94279661,0.947033898,0.950211864,0.953389831,0.959745763
0.94279661,0.947033898,0.950211864,0.953389831,0.959745763,0.961864407
0.947033898,0.950211864,0.953389831,0.959745763,0.961864407,0.963983051
0.950211864,0.953389831,0.959745763,0.961864407,0.963983051,0.962923729
0.953389831,0.959745763,0.961864407,0.963983051,0.962923729,0.965042373
0.959745763,0.961864407,0.963983051,0.962923729,0.965042373,0.959745763
0.961864407,0.963983051,0.962923729,0.965042373,0.959745763,0.967161017
0.963983051,0.962923729,0.965042373,0.959745763,0.967161017,0.961864407
0.962923729,0.965042373,0.959745763,0.967161017,0.961864407,0.961864407
0.965042373,0.959745763,0.967161017,0.961864407,0.961864407,0.959745763
0.959745763,0.967161017,0.961864407,0.961864407,0.959745763,0.959745763
0.967161017,0.961864407,0.961864407,0.959745763,0.959745763,0.956567797
0.961864407,0.961864407,0.959745763,0.959745763,0.956567797,0.953389831
0.961864407,0.959745763,0.959745763,0.956567797,0.953389831,0.945974576
0.959745763,0.959745763,0.956567797,0.953389831,0.945974576,0.9375
0.959745763,0.956567797,0.953389831,0.945974576,0.9375,0.933262712
0.956567797,0.953389831,0.945974576,0.9375,0.933262712,0.929025424
0.953389831,0.945974576,0.9375,0.933262712,0.929025424,0.918432203
0.945974576,0.9375,0.933262712,0.929025424,0.918432203,0.911016949
0.9375,0.933262712,0.929025424,0.918432203,0.911016949,0.903601695
0.933262712,0.929025424,0.918432203,0.911016949,0.903601695,0.890889831
0.929025424,0.918432203,0.911016949,0.903601695,0.890889831,0.88029661
0.918432203,0.911016949,0.903601695,0.890889831,0.88029661,0.871822034
0.911016949,0.903601695,0.890889831,0.88029661,0.871822034,0.858050847
0.903601695,0.890889831,0.88029661,0.871822034,0.858050847,0.845338983
0.890889831,0.88029661,0.871822034,0.858050847,0.845338983,0.837923729
0.88029661,0.871822034,0.858050847,0.845338983,0.837923729,0.825211864
0.871822034,0.858050847,0.845338983,0.837923729,0.825211864,0.815677966
0.858050847,0.845338983,0.837923729,0.825211864,0.815677966,0.80720339
0.845338983,0.837923729,0.825211864,0.815677966,0.80720339,0.799788136
0.837923729,0.825211864,0.815677966,0.80720339,0.799788136,0.794491525
0.825211864,0.815677966,0.80720339,0.799788136,0.794491525,0.781779661
0.815677966,0.80720339,0.799788136,0.794491525,0.781779661,0.781779661
0.80720339,0.799788136,0.794491525,0.781779661,0.781779661,0.777542373
0.799788136,0.794491525,0.781779661,0.781779661,0.777542373,0.773305085
0.794491525,0.781779661,0.781779661,0.777542373,0.773305085,0.769067797
0.781779661,0.781779661,0.777542373,0.773305085,0.769067797,0.770127119
0.781779661,0.777542373,0.773305085,0.769067797,0.770127119,0.768008475
0.777542373,0.773305085,0.769067797,0.770127119,0.768008475,0.769067797
0.773305085,0.769067797,0.770127119,0.768008475,0.769067797,0.763771186
0.769067797,0.770127119,0.768008475,0.769067797,0.763771186,0.762711864
0.770127119,0.768008475,0.769067797,0.763771186,0.762711864,0.76059322
0.768008475,0.769067797,0.763771186,0.762711864,0.76059322,0.759533898
0.769067797,0.763771186,0.762711864,0.76059322,0.759533898,0.757415254
0.763771186,0.762711864,0.76059322,0.759533898,0.757415254,0.762711864
0.762711864,0.76059322,0.759533898,0.757415254,0.762711864,0.763771186
0.76059322,0.759533898,0.757415254,0.762711864,0.763771186,0.762711864
0.759533898,0.757415254,0.762711864,0.763771186,0.762711864,0.768008475
0.757415254,0.762711864,0.763771186,0.762711864,0.768008475,0.769067797
0.762711864,0.763771186,0.762711864,0.768008475,0.769067797,0.763771186
0.763771186,0.762711864,0.768008475,0.769067797,0.763771186,0.766949153
0.762711864,0.768008475,0.769067797,0.763771186,0.766949153,0.765889831
0.768008475,0.769067797,0.763771186,0.766949153,0.765889831,0.763771186
0.769067797,0.763771186,0.766949153,0.765889831,0.763771186,0.762711864
0.763771186,0.766949153,0.765889831,0.763771186,0.762711864,0.765889831
0.766949153,0.765889831,0.763771186,0.762711864,0.765889831,0.770127119
0.765889831,0.763771186,0.762711864,0.765889831,0.770127119,0.761652542
0.763771186,0.762711864,0.765889831,0.770127119,0.761652542,0.763771186
0.762711864,0.765889831,0.770127119,0.761652542,0.763771186,0.763771186
0.765889831,0.770127119,0.761652542,0.763771186,0.763771186,0.76059322
0.770127119,0.761652542,0.763771186,0.763771186,0.76059322,0.761652542
0.761652542,0.763771186,0.763771186,0.76059322,0.761652542,0.762711864
0.763771186,0.763771186,0.76059322,0.761652542,0.762711864,0.762711864
0.763771186,0.76059322,0.761652542,0.762711864,0.762711864,0.76059322
0.76059322,0.761652542,0.762711864,0.762711864,0.76059322,0.765889831
0.761652542,0.762711864,0.762711864,0.76059322,0.765889831,0.759533898
0.762711864,0.762711864,0.76059322,0.765889831,0.759533898,0.76059322
0.762711864,0.76059322,0.765889831,0.759533898,0.76059322,0.757415254
0.76059322,0.765889831,0.759533898,0.76059322,0.757415254,0.756355932
0.765889831,0.759533898,0.76059322,0.757415254,0.756355932,0.757415254
0.759533898,0.76059322,0.757415254,0.756355932,0.757415254,0.754237288
0.76059322,0.757415254,0.756355932,0.757415254,0.754237288,0.752118644
0.757415254,0.756355932,0.757415254,0.754237288,0.752118644,0.752118644
0.756355932,0.757415254,0.754237288,0.752118644,0.752118644,0.754237288
0.757415254,0.754237288,0.752118644,0.752118644,0.754237288,0.751059322
0.754237288,0.752118644,0.752118644,0.754237288,0.751059322,0.75
0.752118644,0.752118644,0.754237288,0.751059322,0.75,0.753177966
0.752118644,0.754237288,0.751059322,0.75,0.753177966,0.752118644
0.754237288,0.751059322,0.75,0.753177966,0.752118644,0.747881356
0.751059322,0.75,0.753177966,0.752118644,0.747881356,0.747881356
0.75,0.753177966,0.752118644,0.747881356,0.747881356,0.745762712
0.753177966,0.752118644,0.747881356,0.747881356,0.745762712,0.743644068
0.752118644,0.747881356,0.747881356,0.745762712,0.743644068,0.745762712
0.747881356,0.747881356,0.745762712,0.743644068,0.745762712,0.75
0.747881356,0.745762712,0.743644068,0.745762712,0.75,0.747881356
0.745762712,0.743644068,0.745762712,0.75,0.747881356,0.742584746
0.743644068,0.745762712,0.75,0.747881356,0.742584746,0.743644068
0.745762712,0.75,0.747881356,0.742584746,0.743644068,0.743644068
0.75,0.747881356,0.742584746,0.743644068,0.743644068,0.742584746
0.747881356,0.742584746,0.743644068,0.743644068,0.742584746,0.748940678
0.742584746,0.743644068,0.743644068,0.742584746,0.748940678,0.75
0.743644068,0.743644068,0.742584746,0.748940678,0.75,0.756355932
0.743644068,0.742584746,0.748940678,0.75,0.756355932,0.759533898
0.742584746,0.748940678,0.75,0.756355932,0.759533898,0.757415254
0.748940678,0.75,0.756355932,0.759533898,0.757415254,0.765889831
0.75,0.756355932,0.759533898,0.757415254,0.765889831,0.771186441
0.756355932,0.759533898,0.757415254,0.765889831,0.771186441,0.765889831
0.759533898,0.757415254,0.765889831,0.771186441,0.765889831,0.766949153
0.757415254,0.765889831,0.771186441,0.765889831,0.766949153,0.766949153
0.765889831,0.771186441,0.765889831,0.766949153,0.766949153,0.766949153
0.771186441,0.765889831,0.766949153,0.766949153,0.766949153,0.766949153
0.765889831,0.766949153,0.766949153,0.766949153,0.766949153,0.765889831
0.766949153,0.766949153,0.766949153,0.766949153,0.765889831,0.763771186
0.766949153,0.766949153,0.766949153,0.765889831,0.763771186,0.757415254
0.766949153,0.766949153,0.765889831,0.763771186,0.757415254,0.75
0.766949153,0.765889831,0.763771186,0.757415254,0.75,0.74470339
0.765889831,0.763771186,0.757415254,0.75,0.74470339,0.740466102
0.763771186,0.757415254,0.75,0.74470339,0.740466102,0.745762712
0.757415254,0.75,0.74470339,0.740466102,0.745762712,0.736228814
0.75,0.74470339,0.740466102,0.745762712,0.736228814,0.738347458
0.74470339,0.740466102,0.745762712,0.736228814,0.738347458,0.733050847
0.740466102,0.745762712,0.736228814,0.738347458,0.733050847,0.735169492
0.745762712,0.736228814,0.738347458,0.733050847,0.735169492,0.730932203
0.736228814,0.738347458,0.733050847,0.735169492,0.730932203,0.733050847
0.738347458,0.733050847,0.735169492,0.730932203,0.733050847,0.733050847
0.733050847,0.735169492,0.730932203,0.733050847,0.733050847,0.730932203
0.735169492,0.730932203,0.733050847,0.733050847,0.730932203,0.737288136
0.730932203,0.733050847,0.733050847,0.730932203,0.737288136,0.737288136
0.733050847,0.733050847,0.730932203,0.737288136,0.737288136,0.737288136
0.733050847,0.730932203,0.737288136,0.737288136,0.737288136,0.740466102
0.730932203,0.737288136,0.737288136,0.737288136,0.740466102,0.738347458
0.737288136,0.737288136,0.737288136,0.740466102,0.738347458,0.737288136
0.737288136,0.737288136,0.740466102,0.738347458,0.737288136,0.737288136
0.737288136,0.740466102,0.738347458,0.737288136,0.737288136,0.735169492
0.740466102,0.738347458,0.737288136,0.737288136,0.735169492,0.734110169
0.738347458,0.737288136,0.737288136,0.735169492,0.734110169,0.735169492
0.737288136,0.737288136,0.735169492,0.734110169,0.735169492,0.735169492
0.737288136,0.735169492,0.734110169,0.735169492,0.735169492,0.737288136
0.735169492,0.734110169,0.735169492,0.735169492,0.737288136,0.737288136
0.734110169,0.735169492,0.735169492,0.737288136,0.737288136,0.736228814
0.735169492,0.735169492,0.737288136,0.737288136,0.736228814,0.737288136
0.735169492,0.737288136,0.737288136,0.736228814,0.737288136,0.734110169
0.737288136,0.737288136,0.736228814,0.737288136,0.734110169,0.733050847
0.737288136,0.736228814,0.737288136,0.734110169,0.733050847,0.734110169
0.736228814,0.737288136,0.734110169,0.733050847,0.734110169,0.737288136
0.737288136,0.734110169,0.733050847,0.734110169,0.737288136,0.735169492
0.734110169,0.733050847,0.734110169,0.737288136,0.735169492,0.735169492
0.733050847,0.734110169,0.737288136,0.735169492,0.735169492,0.740466102
0.734110169,0.737288136,0.735169492,0.735169492,0.740466102,0.738347458
0.737288136,0.735169492,0.735169492,0.740466102,0.738347458,0.738347458
0.735169492,0.735169492,0.740466102,0.738347458,0.738347458,0.738347458
0.735169492,0.740466102,0.738347458,0.738347458,0.738347458,0.736228814
0.740466102,0.738347458,0.738347458,0.738347458,0.736228814,0.730932203
0.738347458,0.738347458,0.738347458,0.736228814,0.730932203,0.728813559
0.738347458,0.738347458,0.736228814,0.730932203,0.728813559,0.733050847
0.738347458,0.736228814,0.730932203,0.728813559,0.733050847,0.742584746
0.736228814,0.730932203,0.728813559,0.733050847,0.742584746,0.746822034
0.730932203,0.728813559,0.733050847,0.742584746,0.746822034,0.709745763
0.728813559,0.733050847,0.742584746,0.746822034,0.709745763,0.613347458
0.733050847,0.742584746,0.746822034,0.709745763,0.613347458,0.477754237
0.742584746,0.746822034,0.709745763,0.613347458,0.477754237,0.342161017
0.746822034,0.709745763,0.613347458,0.477754237,0.342161017,0.206567797
0.709745763,0.613347458,0.477754237,0.342161017,0.206567797,0.133474576
0.613347458,0.477754237,0.342161017,0.206567797,0.133474576,0.103813559
0.477754237,0.342161017,0.206567797,0.133474576,0.103813559,0.088983051
0.342161017,0.206567797,0.133474576,0.103813559,0.088983051,0.085805085
0.206567797,0.133474576,0.103813559,0.088983051,0.085805085,0.080508475
0.133474576,0.103813559,0.088983051,0.085805085,0.080508475,0.081567797
0.103813559,0.088983051,0.085805085,0.080508475,0.081567797,0.091101695
0.088983051,0.085805085,0.080508475,0.081567797,0.091101695,0.122881356
0.085805085,0.080508475,0.081567797,0.091101695,0.122881356,0.158898305
0.080508475,0.081567797,0.091101695,0.122881356,0.158898305,0.200211864
0.081567797,0.091101695,0.122881356,0.158898305,0.200211864,0.236228814
0.091101695,0.122881356,0.158898305,0.200211864,0.236228814,0.254237288
0.122881356,0.158898305,0.200211864,0.236228814,0.254237288,0.278601695
0.158898305,0.200211864,0.236228814,0.254237288,0.278601695,0.31779661
0.200211864,0.236228814,0.254237288,0.278601695,0.31779661,0.383474576
0.236228814,0.254237288,0.278601695,0.31779661,0.383474576,0.457627119
0.254237288,0.278601695,0.31779661,0.383474576,0.457627119,0.522245763
0.278601695,0.31779661,0.383474576,0.457627119,0.522245763,0.578389831
0.31779661,0.383474576,0.457627119,0.522245763,0.578389831,0.618644068
0.383474576,0.457627119,0.522245763,0.578389831,0.618644068,0.649364407
0.457627119,0.522245763,0.578389831,0.618644068,0.649364407,0.67690678
0.522245763,0.578389831,0.618644068,0.649364407,0.67690678,0.713983051
0.578389831,0.618644068,0.649364407,0.67690678,0.713983051,0.75
0.618644068,0.649364407,0.67690678,0.713983051,0.75,0.779661017
0.649364407,0.67690678,0.713983051,0.75,0.779661017,0.805084746
0.67690678,0.713983051,0.75,0.779661017,0.805084746,0.8125
0.713983051,0.75,0.779661017,0.805084746,0.8125,0.81779661
0.75,0.779661017,0.805084746,0.8125,0.81779661,0.8125
0.779661017,0.805084746,0.8125,0.81779661,0.8125,0.813559322
0.805084746,0.8125,0.81779661,0.8125,0.813559322,0.809322034
0.8125,0.81779661,0.8125,0.813559322,0.809322034,0.818855932
0.81779661,0.8125,0.813559322,0.809322034,0.818855932,0.820974576
0.8125,0.813559322,0.809322034,0.818855932,0.820974576,0.819915254
0.813559322,0.809322034,0.818855932,0.820974576,0.819915254,0.82309322
0.809322034,0.818855932,0.820974576,0.819915254,0.82309322,0.82309322
0.818855932,0.820974576,0.819915254,0.82309322,0.82309322,0.828389831
0.820974576,0.819915254,0.82309322,0.82309322,0.828389831,0.824152542
0.819915254,0.82309322,0.82309322,0.828389831,0.824152542,0.825211864
0.82309322,0.82309322,0.828389831,0.824152542,0.825211864,0.824152542
0.82309322,0.828389831,0.824152542,0.825211864,0.824152542,0.829449153
0.828389831,0.824152542,0.825211864,0.824152542,0.829449153,0.829449153
0.824152542,0.825211864,0.824152542,0.829449153,0.829449153,0.831567797
0.825211864,0.824152542,0.829449153,0.829449153,0.831567797,0.836864407
0.824152542,0.829449153,0.829449153,0.831567797,0.836864407,0.837923729
0.829449153,0.829449153,0.831567797,0.836864407,0.837923729,0.834745763
0.829449153,0.831567797,0.836864407,0.837923729,0.834745763,0.837923729
0.831567797,0.836864407,0.837923729,0.834745763,0.837923729,0.846398305
0.836864407,0.837923729,0.834745763,0.837923729,0.846398305,0.844279661
0.837923729,0.834745763,0.837923729,0.846398305,0.844279661,0.847457627
0.834745763,0.837923729,0.846398305,0.844279661,0.847457627,0.850635593
0.837923729,0.846398305,0.844279661,0.847457627,0.850635593,0.854872881
0.846398305,0.844279661,0.847457627,0.850635593,0.854872881,0.858050847
0.844279661,0.847457627,0.850635593,0.854872881,0.858050847,0.862288136
0.847457627,0.850635593,0.854872881,0.858050847,0.862288136,0.856991525
0.850635593,0.854872881,0.858050847,0.862288136,0.856991525,0.862288136
0.854872881,0.858050847,0.862288136,0.856991525,0.862288136,0.865466102
0.858050847,0.862288136,0.856991525,0.862288136,0.865466102,0.865466102
0.862288136,0.856991525,0.862288136,0.865466102,0.865466102,0.871822034
0.856991525,0.862288136,0.865466102,0.865466102,0.871822034,0.881355932
0.862288136,0.865466102,0.865466102,0.871822034,0.881355932,0.882415254
0.865466102,0.865466102,0.871822034,0.881355932,0.882415254,0.88029661
0.865466102,0.871822034,0.881355932,0.882415254,0.88029661,0.894067797
0.871822034,0.881355932,0.882415254,0.88029661,0.894067797,0.890889831
0.881355932,0.882415254,0.88029661,0.894067797,0.890889831,0.891949153
0.882415254,0.88029661,0.894067797,0.890889831,0.891949153,0.898305085
0.88029661,0.894067797,0.890889831,0.891949153,0.898305085,0.902542373
0.894067797,0.890889831,0.891949153,0.898305085,0.902542373,0.902542373
0.890889831,0.891949153,0.898305085,0.902542373,0.902542373,0.908898305
0.891949153,0.898305085,0.902542373,0.902542373,0.908898305,0.915254237
0.898305085,0.902542373,0.902542373,0.908898305,0.915254237,0.922669492
0.902542373,0.902542373,0.908898305,0.915254237,0.922669492,0.927966102
0.902542373,0.908898305,0.915254237,0.922669492,0.927966102,0.931144068
0.908898305,0.915254237,0.922669492,0.927966102,0.931144068,0.931144068
0.915254237,0.922669492,0.927966102,0.931144068,0.931144068,0.933262712
0.922669492,0.927966102,0.931144068,0.931144068,0.933262712,0.935381356
0.927966102,0.931144068,0.931144068,0.933262712,0.935381356,0.941737288
0.931144068,0.931144068,0.933262712,0.935381356,0.941737288,0.938559322
0.931144068,0.933262712,0.935381356,0.941737288,0.938559322,0.94279661
0.933262712,0.935381356,0.941737288,0.938559322,0.94279661,0.951271186
0.935381356,0.941737288,0.938559322,0.94279661,0.951271186,0.950211864
0.941737288,0.938559322,0.94279661,0.951271186,0.950211864,0.950211864
0.938559322,0.94279661,0.951271186,0.950211864,0.950211864,0.952330508
0.94279661,0.951271186,0.950211864,0.950211864,0.952330508,0.952330508
0.951271186,0.950211864,0.950211864,0.952330508,0.952330508,0.950211864
0.950211864,0.950211864,0.952330508,0.952330508,0.950211864,0.951271186
0.950211864,0.952330508,0.952330508,0.950211864,0.951271186,0.954449153
0.952330508,0.952330508,0.950211864,0.951271186,0.954449153,0.94809322
0.952330508,0.950211864,0.951271186,0.954449153,0.94809322,0.94809322
0.950211864,0.951271186,0.954449153,0.94809322,0.94809322,0.947033898
0.951271186,0.954449153,0.94809322,0.94809322,0.947033898,0.939618644
0.954449153,0.94809322,0.94809322,0.947033898,0.939618644,0.933262712
0.94809322,0.94809322,0.947033898,0.939618644,0.933262712,0.925847458
0.94809322,0.947033898,0.939618644,0.933262712,0.925847458,0.922669492
0.947033898,0.939618644,0.933262712,0.925847458,0.922669492,0.915254237
0.939618644,0.933262712,0.925847458,0.922669492,0.915254237,0.906779661
0.933262712,0.925847458,0.922669492,0.915254237,0.906779661,0.896186441
0.925847458,0.922669492,0.915254237,0.906779661,0.896186441,0.886652542
0.922669492,0.915254237,0.906779661,0.896186441,0.886652542,0.884533898
0.915254237,0.906779661,0.896186441,0.886652542,0.884533898,0.871822034
0.906779661,0.896186441,0.886652542,0.884533898,0.871822034,0.860169492
0.896186441,0.886652542,0.884533898,0.871822034,0.860169492,0.851694915
0.886652542,0.884533898,0.871822034,0.860169492,0.851694915,0.840042373
0.884533898,0.871822034,0.860169492,0.851694915,0.840042373,0.832627119
0.871822034,0.860169492,0.851694915,0.840042373,0.832627119,0.82309322
0.860169492,0.851694915,0.840042373,0.832627119,0.82309322,0.814618644
0.851694915,0.840042373,0.832627119,0.82309322,0.814618644,0.806144068
0.840042373,0.832627119,0.82309322,0.814618644,0.806144068,0.798728814
0.832627119,0.82309322,0.814618644,0.806144068,0.798728814,0.794491525
0.82309322,0.814618644,0.806144068,0.798728814,0.794491525,0.786016949
0.814618644,0.806144068,0.798728814,0.794491525,0.786016949,0.781779661
0.806144068,0.798728814,0.794491525,0.786016949,0.781779661,0.775423729
0.798728814,0.794491525,0.786016949,0.781779661,0.775423729,0.775423729
0.794491525,0.786016949,0.781779661,0.775423729,0.775423729,0.771186441
0.786016949,0.781779661,0.775423729,0.775423729,0.771186441,0.771186441
0.781779661,0.775423729,0.775423729,0.771186441,0.771186441,0.764830508
0.775423729,0.775423729,0.771186441,0.771186441,0.764830508,0.763771186
0.775423729,0.771186441,0.771186441,0.764830508,0.763771186,0.762711864
0.771186441,0.771186441,0.764830508,0.763771186,0.762711864,0.762711864
0.771186441,0.764830508,0.763771186,0.762711864,0.762711864,0.764830508
0.764830508,0.763771186,0.762711864,0.762711864,0.764830508,0.764830508
0.763771186,0.762711864,0.762711864,0.764830508,0.764830508,0.769067797
0.762711864,0.762711864,0.764830508,0.764830508,0.769067797,0.768008475
0.762711864,0.764830508,0.764830508,0.769067797,0.768008475,0.764830508
0.764830508,0.764830508,0.769067797,0.768008475,0.764830508,0.768008475
0.764830508,0.769067797,0.768008475,0.764830508,0.768008475,0.771186441
0.769067797,0.768008475,0.764830508,0.768008475,0.771186441,0.768008475
0.768008475,0.764830508,0.768008475,0.771186441,0.768008475,0.769067797
0.764830508,0.768008475,0.771186441,0.768008475,0.769067797,0.766949153
0.768008475,0.771186441,0.768008475,0.769067797,0.766949153,0.769067797
0.771186441,0.768008475,0.769067797,0.766949153,0.769067797,0.769067797
0.768008475,0.769067797,0.766949153,0.769067797,0.769067797,0.768008475
0.769067797,0.766949153,0.769067797,0.769067797,0.768008475,0.770127119
0.766949153,0.769067797,0.769067797,0.768008475,0.770127119,0.771186441
0.769067797,0.769067797,0.768008475,0.770127119,0.771186441,0.771186441
0.769067797,0.768008475,0.770127119,0.771186441,0.771186441,0.771186441
0.768008475,0.770127119,0.771186441,0.771186441,0.771186441,0.768008475
0.770127119,0.771186441,0.771186441,0.771186441,0.768008475,0.768008475
0.771186441,0.771186441,0.771186441,0.768008475,0.768008475,0.766949153
0.771186441,0.771186441,0.768008475,0.768008475,0.766949153,0.768008475
0.771186441,0.768008475,0.768008475,0.766949153,0.768008475,0.768008475
0.768008475,0.768008475,0.766949153,0.768008475,0.768008475,0.768008475
0.768008475,0.766949153,0.768008475,0.768008475,0.768008475,0.768008475
0.766949153,0.768008475,0.768008475,0.768008475,0.768008475,0.765889831
0.768008475,0.768008475,0.768008475,0.768008475,0.765889831,0.762711864
0.768008475,0.768008475,0.768008475,0.765889831,0.762711864,0.764830508
0.768008475,0.768008475,0.765889831,0.762711864,0.764830508,0.763771186
0.768008475,0.765889831,0.762711864,0.764830508,0.763771186,0.765889831
0.765889831,0.762711864,0.764830508,0.763771186,0.765889831,0.759533898
0.762711864,0.764830508,0.763771186,0.765889831,0.759533898,0.761652542
0.764830508,0.763771186,0.765889831,0.759533898,0.761652542,0.75529661
0.763771186,0.765889831,0.759533898,0.761652542,0.75529661,0.759533898
0.765889831,0.759533898,0.761652542,0.75529661,0.759533898,0.758474576
0.759533898,0.761652542,0.75529661,0.759533898,0.758474576,0.754237288
0.761652542,0.75529661,0.759533898,0.758474576,0.754237288,0.756355932
0.75529661,0.759533898,0.758474576,0.754237288,0.756355932,0.75529661
0.759533898,0.758474576,0.754237288,0.756355932,0.75529661,0.754237288
0.758474576,0.754237288,0.756355932,0.75529661,0.754237288,0.753177966
0.754237288,0.756355932,0.75529661,0.754237288,0.753177966,0.752118644
0.756355932,0.75529661,0.754237288,0.753177966,0.752118644,0.751059322
0.75529661,0.754237288,0.753177966,0.752118644,0.751059322,0.75529661
0.754237288,0.753177966,0.752118644,0.751059322,0.75529661,0.754237288
0.753177966,0.752118644,0.751059322,0.75529661,0.754237288,0.754237288
0.752118644,0.751059322,0.75529661,0.754237288,0.754237288,0.751059322
0.751059322,0.75529661,0.754237288,0.754237288,0.751059322,0.754237288
0.75529661,0.754237288,0.754237288,0.751059322,0.754237288,0.756355932
0.754237288,0.754237288,0.751059322,0.754237288,0.756355932,0.756355932
0.754237288,0.751059322,0.754237288,0.756355932,0.756355932,0.759533898
0.751059322,0.754237288,0.756355932,0.756355932,0.759533898,0.769067797
0.754237288,0.756355932,0.756355932,0.759533898,0.769067797,0.770127119
0.756355932,0.756355932,0.759533898,0.769067797,0.770127119,0.766949153
0.756355932,0.759533898,0.769067797,0.770127119,0.766949153,0.773305085
0.759533898,0.769067797,0.770127119,0.766949153,0.773305085,0.773305085
0.769067797,0.770127119,0.766949153,0.773305085,0.773305085,0.773305085
0.770127119,0.766949153,0.773305085,0.773305085,0.773305085,0.776483051
0.766949153,0.773305085,0.773305085,0.773305085,0.776483051,0.769067797
0.773305085,0.773305085,0.773305085,0.776483051,0.769067797,0.768008475
0.773305085,0.773305085,0.776483051,0.769067797,0.768008475,0.768008475
0.773305085,0.776483051,0.769067797,0.768008475,0.768008475,0.757415254
0.776483051,0.769067797,0.768008475,0.768008475,0.757415254,0.753177966
0.769067797,0.768008475,0.768008475,0.757415254,0.753177966,0.753177966
0.768008475,0.768008475,0.757415254,0.753177966,0.753177966,0.747881356
0.768008475,0.757415254,0.753177966,0.753177966,0.747881356,0.746822034
0.757415254,0.753177966,0.753177966,0.747881356,0.746822034,0.746822034
0.753177966,0.753177966,0.747881356,0.746822034,0.746822034,0.740466102
0.753177966,0.747881356,0.746822034,0.746822034,0.740466102,0.737288136
0.747881356,0.746822034,0.746822034,0.740466102,0.737288136,0.738347458
0.746822034,0.746822034,0.740466102,0.737288136,0.738347458,0.740466102
0.746822034,0.740466102,0.737288136,0.738347458,0.740466102,0.733050847
0.740466102,0.737288136,0.738347458,0.740466102,0.733050847,0.738347458
0.737288136,0.738347458,0.740466102,0.733050847,0.738347458,0.738347458
0.738347458,0.740466102,0.733050847,0.738347458,0.738347458,0.740466102
0.740466102,0.733050847,0.738347458,0.738347458,0.740466102,0.738347458
0.733050847,0.738347458,0.738347458,0.740466102,0.738347458,0.73940678
0.738347458,0.738347458,0.740466102,0.738347458,0.73940678,0.73940678
0.738347458,0.740466102,0.738347458,0.73940678,0.73940678,0.737288136
0.740466102,0.738347458,0.73940678,0.73940678,0.737288136,0.740466102
0.738347458,0.73940678,0.73940678,0.737288136,0.740466102,0.737288136
0.73940678,0.73940678,0.737288136,0.740466102,0.737288136,0.737288136
0.73940678,0.737288136,0.740466102,0.737288136,0.737288136,0.73940678
0.737288136,0.740466102,0.737288136,0.737288136,0.73940678,0.733050847
0.740466102,0.737288136,0.737288136,0.73940678,0.733050847,0.733050847
0.737288136,0.737288136,0.73940678,0.733050847,0.733050847,0.735169492
0.737288136,0.73940678,0.733050847,0.733050847,0.735169492,0.733050847
0.73940678,0.733050847,0.733050847,0.735169492,0.733050847,0.733050847
0.733050847,0.733050847,0.735169492,0.733050847,0.733050847,0.735169492
0.733050847,0.735169492,0.733050847,0.733050847,0.735169492,0.736228814
0.735169492,0.733050847,0.733050847,0.735169492,0.736228814,0.736228814
0.733050847,0.733050847,0.735169492,0.736228814,0.736228814,0.731991525
0.733050847,0.735169492,0.736228814,0.736228814,0.731991525,0.734110169
0.735169492,0.736228814,0.736228814,0.731991525,0.734110169,0.736228814
0.736228814,0.736228814,0.731991525,0.734110169,0.736228814,0.734110169
0.736228814,0.731991525,0.734110169,0.736228814,0.734110169,0.736228814
0.731991525,0.734110169,0.736228814,0.734110169,0.736228814,0.735169492
0.734110169,0.736228814,0.734110169,0.736228814,0.735169492,0.733050847
0.736228814,0.734110169,0.736228814,0.735169492,0.733050847,0.730932203
0.734110169,0.736228814,0.735169492,0.733050847,0.730932203,0.731991525
0.736228814,0.735169492,0.733050847,0.730932203,0.731991525,0.728813559
0.735169492,0.733050847,0.730932203,0.731991525,0.728813559,0.724576271
0.733050847,0.730932203,0.731991525,0.728813559,0.724576271,0.728813559
0.730932203,0.731991525,0.728813559,0.724576271,0.728813559,0.734110169
0.731991525,0.728813559,0.724576271,0.728813559,0.734110169,0.722457627
0.728813559,0.724576271,0.728813559,0.734110169,0.722457627,0.671610169
0.724576271,0.728813559,0.734110169,0.722457627,0.671610169,0.565677966
0.728813559,0.734110169,0.722457627,0.671610169,0.565677966,0.430084746
0.734110169,0.722457627,0.671610169,0.565677966,0.430084746,0.294491525
0.722457627,0.671610169,0.565677966,0.430084746,0.294491525,0.1875
0.671610169,0.565677966,0.430084746,0.294491525,0.1875,0.140889831
0.565677966,0.430084746,0.294491525,0.1875,0.140889831,0.117584746
0.430084746,0.294491525,0.1875,0.140889831,0.117584746,0.109110169
0.294491525,0.1875,0.140889831,0.117584746,0.109110169,0.102754237
0.1875,0.140889831,0.117584746,0.109110169,0.102754237,0.097457627
0.140889831,0.117584746,0.109110169,0.102754237,0.097457627,0.109110169
0.117584746,0.109110169,0.102754237,0.097457627,0.109110169,0.13029661
0.109110169,0.102754237,0.097457627,0.109110169,0.13029661,0.163135593
0.102754237,0.097457627,0.109110169,0.13029661,0.163135593,0.205508475
0.097457627,0.109110169,0.13029661,0.163135593,0.205508475,0.240466102
0.109110169,0.13029661,0.163135593,0.205508475,0.240466102,0.261652542
0.13029661,0.163135593,0.205508475,0.240466102,0.261652542,0.284957627
0.163135593,0.205508475,0.240466102,0.261652542,0.284957627,0.313559322
0.205508475,0.240466102,0.261652542,0.284957627,0.313559322,0.36970339
0.240466102,0.261652542,0.284957627,0.313559322,0.36970339,0.435381356
0.261652542,0.284957627,0.313559322,0.36970339,0.435381356,0.506355932
0.284957627,0.313559322,0.36970339,0.435381356,0.506355932,0.568855932
0.313559322,0.36970339,0.435381356,0.506355932,0.568855932,0.610169492
0.36970339,0.435381356,0.506355932,0.568855932,0.610169492,0.638771186
0.435381356,0.506355932,0.568855932,0.610169492,0.638771186,0.668432203
0.506355932,0.568855932,0.610169492,0.638771186,0.668432203,0.699152542
0.568855932,0.610169492,0.638771186,0.668432203,0.699152542,0.734110169
0.610169492,0.638771186,0.668432203,0.699152542,0.734110169,0.769067797
0.638771186,0.668432203,0.699152542,0.734110169,0.769067797,0.788135593
0.668432203,0.699152542,0.734110169,0.769067797,0.788135593,0.804025424
0.699152542,0.734110169,0.769067797,0.788135593,0.804025424,0.810381356
0.734110169,0.769067797,0.788135593,0.804025424,0.810381356,0.80720339
0.769067797,0.788135593,0.804025424,0.810381356,0.80720339,0.805084746
0.788135593,0.804025424,0.810381356,0.80720339,0.805084746,0.80720339
0.804025424,0.810381356,0.80720339,0.805084746,0.80720339,0.808262712
0.810381356,0.80720339,0.805084746,0.80720339,0.808262712,0.80720339
0.80720339,0.805084746,0.80720339,0.808262712,0.80720339,0.81779661
0.805084746,0.80720339,0.808262712,0.80720339,0.81779661,0.816737288
0.80720339,0.808262712,0.80720339,0.81779661,0.816737288,0.818855932
0.808262712,0.80720339,0.81779661,0.816737288,0.818855932,0.818855932
0.80720339,0.81779661,0.816737288,0.818855932,0.818855932,0.822033898
0.81779661,0.816737288,0.818855932,0.818855932,0.822033898,0.819915254
0.816737288,0.818855932,0.818855932,0.822033898,0.819915254,0.818855932
0.818855932,0.818855932,0.822033898,0.819915254,0.818855932,0.816737288
0.818855932,0.822033898,0.819915254,0.818855932,0.816737288,0.824152542
0.822033898,0.819915254,0.818855932,0.816737288,0.824152542,0.825211864
0.819915254,0.818855932,0.816737288,0.824152542,0.825211864,0.825211864
0.818855932,0.816737288,0.824152542,0.825211864,0.825211864,0.830508475
0.816737288,0.824152542,0.825211864,0.825211864,0.830508475,0.833686441
0.824152542,0.825211864,0.825211864,0.830508475,0.833686441,0.832627119
0.825211864,0.825211864,0.830508475,0.833686441,0.832627119,0.831567797
0.825211864,0.830508475,0.833686441,0.832627119,0.831567797,0.833686441
0.830508475,0.833686441,0.832627119,0.831567797,0.833686441,0.838983051
0.833686441,0.832627119,0.831567797,0.833686441,0.838983051,0.841101695
0.832627119,0.831567797,0.833686441,0.838983051,0.841101695,0.843220339
0.831567797,0.833686441,0.838983051,0.841101695,0.843220339,0.847457627
0.833686441,0.838983051,0.841101695,0.843220339,0.847457627,0.845338983
0.838983051,0.841101695,0.843220339,0.847457627,0.845338983,0.848516949
0.841101695,0.843220339,0.847457627,0.845338983,0.848516949,0.849576271
0.843220339,0.847457627,0.845338983,0.848516949,0.849576271,0.853813559
0.847457627,0.845338983,0.848516949,0.849576271,0.853813559,0.854872881
0.845338983,0.848516949,0.849576271,0.853813559,0.854872881,0.862288136
0.848516949,0.849576271,0.853813559,0.854872881,0.862288136,0.863347458
0.849576271,0.853813559,0.854872881,0.862288136,0.863347458,0.867584746
0.853813559,0.854872881,0.862288136,0.863347458,0.867584746,0.870762712
0.854872881,0.862288136,0.863347458,0.867584746,0.870762712,0.88029661
0.862288136,0.863347458,0.867584746,0.870762712,0.88029661,0.879237288
0.863347458,0.867584746,0.870762712,0.88029661,0.879237288,0.882415254
0.867584746,0.870762712,0.88029661,0.879237288,0.882415254,0.882415254
0.870762712,0.88029661,0.879237288,0.882415254,0.882415254,0.886652542
0.88029661,0.879237288,0.882415254,0.882415254,0.886652542,0.893008475
0.879237288,0.882415254,0.882415254,0.886652542,0.893008475,0.900423729
0.882415254,0.882415254,0.886652542,0.893008475,0.900423729,0.900423729
0.882415254,0.886652542,0.893008475,0.900423729,0.900423729,0.900423729
0.886652542,0.893008475,0.900423729,0.900423729,0.900423729,0.911016949
0.893008475,0.900423729,0.900423729,0.900423729,0.911016949,0.911016949
0.900423729,0.900423729,0.900423729,0.911016949,0.911016949,0.916313559
0.900423729,0.900423729,0.911016949,0.911016949,0.916313559,0.922669492
0.900423729,0.911016949,0.911016949,0.916313559,0.922669492,0.924788136
0.911016949,0.911016949,0.916313559,0.922669492,0.924788136,0.924788136
0.911016949,0.916313559,0.922669492,0.924788136,0.924788136,0.927966102
0.916313559,0.922669492,0.924788136,0.924788136,0.927966102,0.933262712
0.922669492,0.924788136,0.924788136,0.927966102,0.933262712,0.935381356
0.924788136,0.924788136,0.927966102,0.933262712,0.935381356,0.936440678
0.924788136,0.927966102,0.933262712,0.935381356,0.936440678,0.940677966
0.927966102,0.933262712,0.935381356,0.936440678,0.940677966,0.945974576
0.933262712,0.935381356,0.936440678,0.940677966,0.945974576,0.944915254
0.935381356,0.936440678,0.940677966,0.945974576,0.944915254,0.939618644
0.936440678,0.940677966,0.945974576,0.944915254,0.939618644,0.939618644
0.940677966,0.945974576,0.944915254,0.939618644,0.939618644,0.936440678
0.945974576,0.944915254,0.939618644,0.939618644,0.936440678,0.938559322
0.944915254,0.939618644,0.939618644,0.936440678,0.938559322,0.940677966
0.939618644,0.939618644,0.936440678,0.938559322,0.940677966,0.935381356
0.939618644,0.936440678,0.938559322,0.940677966,0.935381356,0.929025424
0.936440678,0.938559322,0.940677966,0.935381356,0.929025424,0.924788136
0.938559322,0.940677966,0.935381356,0.929025424,0.924788136,0.917372881
0.940677966,0.935381356,0.929025424,0.924788136,0.917372881,0.908898305
0.935381356,0.929025424,0.924788136,0.917372881,0.908898305,0.902542373
0.929025424,0.924788136,0.917372881,0.908898305,0.902542373,0.896186441
0.924788136,0.917372881,0.908898305,0.902542373,0.896186441,0.889830508
0.917372881,0.908898305,0.902542373,0.896186441,0.889830508,0.881355932
0.908898305,0.902542373,0.896186441,0.889830508,0.881355932,0.872881356
0.902542373,0.896186441,0.889830508,0.881355932,0.872881356,0.859110169
0.896186441,0.889830508,0.881355932,0.872881356,0.859110169,0.850635593
0.889830508,0.881355932,0.872881356,0.859110169,0.850635593,0.836864407
0.881355932,0.872881356,0.859110169,0.850635593,0.836864407,0.827330508
0.872881356,0.859110169,0.850635593,0.836864407,0.827330508,0.814618644
0.859110169,0.850635593,0.836864407,0.827330508,0.814618644,0.805084746
0.850635593,0.836864407,0.827330508,0.814618644,0.805084746,0.798728814
0.836864407,0.827330508,0.814618644,0.805084746,0.798728814,0.792372881
0.827330508,0.814618644,0.805084746,0.798728814,0.792372881,0.782838983
0.814618644,0.805084746,0.798728814,0.792372881,0.782838983,0.777542373
0.805084746,0.798728814,0.792372881,0.782838983,0.777542373,0.769067797
0.798728814,0.792372881,0.782838983,0.777542373,0.769067797,0.763771186
0.792372881,0.782838983,0.777542373,0.769067797,0.763771186,0.761652542
0.782838983,0.777542373,0.769067797,0.763771186,0.761652542,0.751059322
0.777542373,0.769067797,0.763771186,0.761652542,0.751059322,0.747881356
0.769067797,0.763771186,0.761652542,0.751059322,0.747881356,0.746822034
0.763771186,0.761652542,0.751059322,0.747881356,0.746822034,0.746822034
0.761652542,0.751059322,0.747881356,0.746822034,0.746822034,0.74470339
0.751059322,0.747881356,0.746822034,0.746822034,0.74470339,0.745762712
0.747881356,0.746822034,0.746822034,0.74470339,0.745762712,0.742584746
0.746822034,0.746822034,0.74470339,0.745762712,0.742584746,0.743644068
0.746822034,0.74470339,0.745762712,0.742584746,0.743644068,0.745762712
0.74470339,0.745762712,0.742584746,0.743644068,0.745762712,0.74470339
0.745762712,0.742584746,0.743644068,0.745762712,0.74470339,0.745762712
0.742584746,0.743644068,0.745762712,0.74470339,0.745762712,0.74470339
0.743644068,0.745762712,0.74470339,0.745762712,0.74470339,0.742584746
0.745762712,0.74470339,0.745762712,0.74470339,0.742584746,0.747881356
0.74470339,0.745762712,0.74470339,0.742584746,0.747881356,0.747881356
0.745762712,0.74470339,0.742584746,0.747881356,0.747881356,0.745762712
0.74470339,0.742584746,0.747881356,0.747881356,0.745762712,0.745762712
0.742584746,0.747881356,0.747881356,0.745762712,0.745762712,0.743644068
0.747881356,0.747881356,0.745762712,0.745762712,0.743644068,0.746822034
0.747881356,0.745762712,0.745762712,0.743644068,0.746822034,0.743644068
0.745762712,0.745762712,0.743644068,0.746822034,0.743644068,0.756355932
0.745762712,0.743644068,0.746822034,0.743644068,0.756355932,0.748940678
0.743644068,0.746822034,0.743644068,0.756355932,0.748940678,0.75
0.746822034,0.743644068,0.756355932,0.748940678,0.75,0.75
0.743644068,0.756355932,0.748940678,0.75,0.75,0.75
0.756355932,0.748940678,0.75,0.75,0.75,0.747881356
0.748940678,0.75,0.75,0.75,0.747881356,0.74470339
0.75,0.75,0.75,0.747881356,0.74470339,0.747881356
0.75,0.75,0.747881356,0.74470339,0.747881356,0.745762712
0.75,0.747881356,0.74470339,0.747881356,0.745762712,0.745762712
0.747881356,0.74470339,0.747881356,0.745762712,0.745762712,0.743644068
0.74470339,0.747881356,0.745762712,0.745762712,0.743644068,0.743644068
0.747881356,0.745762712,0.745762712,0.743644068,0.743644068,0.746822034
0.745762712,0.745762712,0.743644068,0.743644068,0.746822034,0.743644068
0.745762712,0.743644068,0.743644068,0.746822034,0.743644068,0.73940678
0.743644068,0.743644068,0.746822034,0.743644068,0.73940678,0.736228814
0.743644068,0.746822034,0.743644068,0.73940678,0.736228814,0.736228814
0.746822034,0.743644068,0.73940678,0.736228814,0.736228814,0.737288136
0.743644068,0.73940678,0.736228814,0.736228814,0.737288136,0.737288136
0.73940678,0.736228814,0.736228814,0.737288136,0.737288136,0.73940678
0.736228814,0.736228814,0.737288136,0.737288136,0.73940678,0.733050847
0.736228814,0.737288136,0.737288136,0.73940678,0.733050847,0.730932203
0.737288136,0.737288136,0.73940678,0.733050847,0.730932203,0.738347458
0.737288136,0.73940678,0.733050847,0.730932203,0.738347458,0.737288136
0.73940678,0.733050847,0.730932203,0.738347458,0.737288136,0.733050847
0.733050847,0.730932203,0.738347458,0.737288136,0.733050847,0.734110169
0.730932203,0.738347458,0.737288136,0.733050847,0.734110169,0.731991525
0.738347458,0.737288136,0.733050847,0.734110169,0.731991525,0.731991525
0.737288136,0.733050847,0.734110169,0.731991525,0.731991525,0.734110169
0.733050847,0.734110169,0.731991525,0.731991525,0.734110169,0.730932203
0.734110169,0.731991525,0.731991525,0.734110169,0.730932203,0.731991525
0.731991525,0.731991525,0.734110169,0.730932203,0.731991525,0.727754237
0.731991525,0.734110169,0.730932203,0.731991525,0.727754237,0.730932203
0.734110169,0.730932203,0.731991525,0.727754237,0.730932203,0.728813559
0.730932203,0.731991525,0.727754237,0.730932203,0.728813559,0.727754237
0.731991525,0.727754237,0.730932203,0.728813559,0.727754237,0.728813559
0.727754237,0.730932203,0.728813559,0.727754237,0.728813559,0.731991525
0.730932203,0.728813559,0.727754237,0.728813559,0.731991525,0.737288136
0.728813559,0.727754237,0.728813559,0.731991525,0.737288136,0.735169492
0.727754237,0.728813559,0.731991525,0.737288136,0.735169492,0.73940678
0.728813559,0.731991525,0.737288136,0.735169492,0.73940678,0.742584746
0.731991525,0.737288136,0.735169492,0.73940678,0.742584746,0.746822034
0.737288136,0.735169492,0.73940678,0.742584746,0.746822034,0.752118644
0.735169492,0.73940678,0.742584746,0.746822034,0.752118644,0.752118644
0.73940678,0.742584746,0.746822034,0.752118644,0.752118644,0.75529661
0.742584746,0.746822034,0.752118644,0.752118644,0.75529661,0.756355932
0.746822034,0.752118644,0.752118644,0.75529661,0.756355932,0.756355932
0.752118644,0.752118644,0.75529661,0.756355932,0.756355932,0.754237288
0.752118644,0.75529661,0.756355932,0.756355932,0.754237288,0.75529661
0.75529661,0.756355932,0.756355932,0.754237288,0.75529661,0.748940678
0.756355932,0.756355932,0.754237288,0.75529661,0.748940678,0.745762712
0.756355932,0.754237288,0.75529661,0.748940678,0.745762712,0.740466102
0.754237288,0.75529661,0.748940678,0.745762712,0.740466102,0.729872881
0.75529661,0.748940678,0.745762712,0.740466102,0.729872881,0.736228814
0.748940678,0.745762712,0.740466102,0.729872881,0.736228814,0.731991525
0.745762712,0.740466102,0.729872881,0.736228814,0.731991525,0.726694915
0.740466102,0.729872881,0.736228814,0.731991525,0.726694915,0.726694915
0.729872881,0.736228814,0.731991525,0.726694915,0.726694915,0.724576271
0.736228814,0.731991525,0.726694915,0.726694915,0.724576271,0.725635593
0.731991525,0.726694915,0.726694915,0.724576271,0.725635593,0.721398305
0.726694915,0.726694915,0.724576271,0.725635593,0.721398305,0.720338983
0.726694915,0.724576271,0.725635593,0.721398305,0.720338983,0.715042373
0.724576271,0.725635593,0.721398305,0.720338983,0.715042373,0.720338983
0.725635593,0.721398305,0.720338983,0.715042373,0.720338983,0.716101695
0.721398305,0.720338983,0.715042373,0.720338983,0.716101695,0.720338983
0.720338983,0.715042373,0.720338983,0.716101695,0.720338983,0.722457627
0.715042373,0.720338983,0.716101695,0.720338983,0.722457627,0.724576271
0.720338983,0.716101695,0.720338983,0.722457627,0.724576271,0.722457627
0.716101695,0.720338983,0.722457627,0.724576271,0.722457627,0.720338983
0.720338983,0.722457627,0.724576271,0.722457627,0.720338983,0.717161017
0.722457627,0.724576271,0.722457627,0.720338983,0.717161017,0.719279661
0.724576271,0.722457627,0.720338983,0.717161017,0.719279661,0.720338983
0.722457627,0.720338983,0.717161017,0.719279661,0.720338983,0.718220339
0.720338983,0.717161017,0.719279661,0.720338983,0.718220339,0.720338983
0.717161017,0.719279661,0.720338983,0.718220339,0.720338983,0.716101695
0.719279661,0.720338983,0.718220339,0.720338983,0.716101695,0.719279661
0.720338983,0.718220339,0.720338983,0.716101695,0.719279661,0.716101695
0.718220339,0.720338983,0.716101695,0.719279661,0.716101695,0.722457627
0.720338983,0.716101695,0.719279661,0.716101695,0.722457627,0.717161017
0.716101695,0.719279661,0.716101695,0.722457627,0.717161017,0.720338983
0.719279661,0.716101695,0.722457627,0.717161017,0.720338983,0.716101695
0.716101695,0.722457627,0.717161017,0.720338983,0.716101695,0.713983051
0.722457627,0.717161017,0.720338983,0.716101695,0.713983051,0.717161017
0.717161017,0.720338983,0.716101695,0.713983051,0.717161017,0.720338983
0.720338983,0.716101695,0.713983051,0.717161017,0.720338983,0.716101695
0.716101695,0.713983051,0.717161017,0.720338983,0.716101695,0.713983051
0.713983051,0.717161017,0.720338983,0.716101695,0.713983051,0.719279661
0.717161017,0.720338983,0.716101695,0.713983051,0.719279661,0.719279661
0.720338983,0.716101695,0.713983051,0.719279661,0.719279661,0.718220339
0.716101695,0.713983051,0.719279661,0.719279661,0.718220339,0.716101695
0.713983051,0.719279661,0.719279661,0.718220339,0.716101695,0.710805085
0.719279661,0.719279661,0.718220339,0.716101695,0.710805085,0.707627119
0.719279661,0.718220339,0.716101695,0.710805085,0.707627119,0.708686441
0.718220339,0.716101695,0.710805085,0.707627119,0.708686441,0.713983051
0.716101695,0.710805085,0.707627119,0.708686441,0.713983051,0.712923729
0.710805085,0.707627119,0.708686441,0.713983051,0.712923729,0.670550847
0.707627119,0.708686441,0.713983051,0.712923729,0.670550847,0.577330508
0.708686441,0.713983051,0.712923729,0.670550847,0.577330508,0.441737288
0.713983051,0.712923729,0.670550847,0.577330508,0.441737288,0.306144068
0.712923729,0.670550847,0.577330508,0.441737288,0.306144068,0.193855932
0.670550847,0.577330508,0.441737288,0.306144068,0.193855932,0.145127119
0.577330508,0.441737288,0.306144068,0.193855932,0.145127119,0.117584746
0.441737288,0.306144068,0.193855932,0.145127119,0.117584746,0.112288136
0.306144068,0.193855932,0.145127119,0.117584746,0.112288136,0.109110169
0.193855932,0.145127119,0.117584746,0.112288136,0.109110169,0.103813559
0.145127119,0.117584746,0.112288136,0.109110169,0.103813559,0.104872881
0.117584746,0.112288136,0.109110169,0.103813559,0.104872881,0.112288136
0.112288136,0.109110169,0.103813559,0.104872881,0.112288136,0.13559322
0.109110169,0.103813559,0.104872881,0.112288136,0.13559322,0.175847458
0.103813559,0.104872881,0.112288136,0.13559322,0.175847458,0.211864407
0.104872881,0.112288136,0.13559322,0.175847458,0.211864407,0.243644068
0.112288136,0.13559322,0.175847458,0.211864407,0.243644068,0.254237288
0.13559322,0.175847458,0.211864407,0.243644068,0.254237288,0.283898305
0.175847458,0.211864407,0.243644068,0.254237288,0.283898305,0.327330508
0.211864407,0.243644068,0.254237288,0.283898305,0.327330508,0.388771186
0.243644068,0.254237288,0.283898305,0.327330508,0.388771186,0.454449153
0.254237288,0.283898305,0.327330508,0.388771186,0.454449153,0.529661017
0.283898305,0.327330508,0.388771186,0.454449153,0.529661017,0.582627119
0.327330508,0.388771186,0.454449153,0.529661017,0.582627119,0.618644068
0.388771186,0.454449153,0.529661017,0.582627119,0.618644068,0.646186441
0.454449153,0.529661017,0.582627119,0.618644068,0.646186441,0.674788136
0.529661017,0.582627119,0.618644068,0.646186441,0.674788136,0.710805085
0.582627119,0.618644068,0.646186441,0.674788136,0.710805085,0.73940678
0.618644068,0.646186441,0.674788136,0.710805085,0.73940678,0.770127119
0.646186441,0.674788136,0.710805085,0.73940678,0.770127119,0.784957627
0.674788136,0.710805085,0.73940678,0.770127119,0.784957627,0.791313559
0.710805085,0.73940678,0.770127119,0.784957627,0.791313559,0.793432203
0.73940678,0.770127119,0.784957627,0.791313559,0.793432203,0.793432203
0.770127119,0.784957627,0.791313559,0.793432203,0.793432203,0.791313559
0.784957627,0.791313559,0.793432203,0.793432203,0.791313559,0.795550847
0.791313559,0.793432203,0.793432203,0.791313559,0.795550847,0.802966102
0.793432203,0.793432203,0.791313559,0.795550847,0.802966102,0.798728814
0.793432203,0.791313559,0.795550847,0.802966102,0.798728814,0.804025424
0.791313559,0.795550847,0.802966102,0.798728814,0.804025424,0.804025424
0.795550847,0.802966102,0.798728814,0.804025424,0.804025424,0.804025424
0.802966102,0.798728814,0.804025424,0.804025424,0.804025424,0.80720339
0.798728814,0.804025424,0.804025424,0.804025424,0.80720339,0.810381356
0.804025424,0.804025424,0.804025424,0.80720339,0.810381356,0.8125
0.804025424,0.804025424,0.80720339,0.810381356,0.8125,0.810381356
0.804025424,0.80720339,0.810381356,0.8125,0.810381356,0.8125
0.80720339,0.810381356,0.8125,0.810381356,0.8125,0.815677966
0.810381356,0.8125,0.810381356,0.8125,0.815677966,0.815677966
0.8125,0.810381356,0.8125,0.815677966,0.815677966,0.822033898
0.810381356,0.8125,0.815677966,0.815677966,0.822033898,0.820974576
0.8125,0.815677966,0.815677966,0.822033898,0.820974576,0.819915254
0.815677966,0.815677966,0.822033898,0.820974576,0.819915254,0.82309322
0.815677966,0.822033898,0.820974576,0.819915254,0.82309322,0.819915254
0.822033898,0.820974576,0.819915254,0.82309322,0.819915254,0.832627119
0.820974576,0.819915254,0.82309322,0.819915254,0.832627119,0.833686441
0.819915254,0.82309322,0.819915254,0.832627119,0.833686441,0.832627119
0.82309322,0.819915254,0.832627119,0.833686441,0.832627119,0.840042373
0.819915254,0.832627119,0.833686441,0.832627119,0.840042373,0.838983051
0.832627119,0.833686441,0.832627119,0.840042373,0.838983051,0.840042373
0.833686441,0.832627119,0.840042373,0.838983051,0.840042373,0.842161017
0.832627119,0.840042373,0.838983051,0.840042373,0.842161017,0.844279661
0.840042373,0.838983051,0.840042373,0.842161017,0.844279661,0.846398305
0.838983051,0.840042373,0.842161017,0.844279661,0.846398305,0.849576271
0.840042373,0.842161017,0.844279661,0.846398305,0.849576271,0.858050847
0.842161017,0.844279661,0.846398305,0.849576271,0.858050847,0.853813559
0.844279661,0.846398305,0.849576271,0.858050847,0.853813559,0.86440678
0.846398305,0.849576271,0.858050847,0.853813559,0.86440678,0.865466102
0.849576271,0.858050847,0.853813559,0.86440678,0.865466102,0.865466102
0.858050847,0.853813559,0.86440678,0.865466102,0.865466102,0.867584746
0.853813559,0.86440678,0.865466102,0.865466102,0.867584746,0.873940678
0.86440678,0.865466102,0.865466102,0.867584746,0.873940678,0.882415254
0.865466102,0.865466102,0.867584746,0.873940678,0.882415254,0.881355932
0.865466102,0.867584746,0.873940678,0.882415254,0.881355932,0.888771186
0.867584746,0.873940678,0.882415254,0.881355932,0.888771186,0.890889831
0.873940678,0.882415254,0.881355932,0.888771186,0.890889831,0.889830508
0.882415254,0.881355932,0.888771186,0.890889831,0.889830508,0.898305085
0.881355932,0.888771186,0.890889831,0.889830508,0.898305085,0.902542373
0.888771186,0.890889831,0.889830508,0.898305085,0.902542373,0.904661017
0.890889831,0.889830508,0.898305085,0.902542373,0.904661017,0.908898305
0.889830508,0.898305085,0.902542373,0.904661017,0.908898305,0.912076271
0.898305085,0.902542373,0.904661017,0.908898305,0.912076271,0.918432203
0.902542373,0.904661017,0.908898305,0.912076271,0.918432203,0.918432203
0.904661017,0.908898305,0.912076271,0.918432203,0.918432203,0.924788136
0.908898305,0.912076271,0.918432203,0.918432203,0.924788136,0.924788136
0.912076271,0.918432203,0.918432203,0.924788136,0.924788136,0.924788136
0.918432203,0.918432203,0.924788136,0.924788136,0.924788136,0.93220339
0.918432203,0.924788136,0.924788136,0.924788136,0.93220339,0.925847458
0.924788136,0.924788136,0.924788136,0.93220339,0.925847458,0.930084746
0.924788136,0.924788136,0.93220339,0.925847458,0.930084746,0.927966102
0.924788136,0.93220339,0.925847458,0.930084746,0.927966102,0.930084746
0.93220339,0.925847458,0.930084746,0.927966102,0.930084746,0.93220339
0.925847458,0.930084746,0.927966102,0.930084746,0.93220339,0.927966102
0.930084746,0.927966102,0.930084746,0.93220339,0.927966102,0.925847458
0.927966102,0.930084746,0.93220339,0.927966102,0.925847458,0.92690678
0.930084746,0.93220339,0.927966102,0.925847458,0.92690678,0.921610169
0.93220339,0.927966102,0.925847458,0.92690678,0.921610169,0.918432203
0.927966102,0.925847458,0.92690678,0.921610169,0.918432203,0.909957627
0.925847458,0.92690678,0.921610169,0.918432203,0.909957627,0.907838983
0.92690678,0.921610169,0.918432203,0.909957627,0.907838983,0.905720339
0.921610169,0.918432203,0.909957627,0.907838983,0.905720339,0.898305085
0.918432203,0.909957627,0.907838983,0.905720339,0.898305085,0.888771186
0.909957627,0.907838983,0.905720339,0.898305085,0.888771186,0.876059322
0.907838983,0.905720339,0.898305085,0.888771186,0.876059322,0.872881356
0.905720339,0.898305085,0.888771186,0.876059322,0.872881356,0.860169492
0.898305085,0.888771186,0.876059322,0.872881356,0.860169492,0.847457627
0.888771186,0.876059322,0.872881356,0.860169492,0.847457627,0.838983051
0.876059322,0.872881356,0.860169492,0.847457627,0.838983051,0.830508475
0.872881356,0.860169492,0.847457627,0.838983051,0.830508475,0.814618644
0.860169492,0.847457627,0.838983051,0.830508475,0.814618644,0.805084746
0.847457627,0.838983051,0.830508475,0.814618644,0.805084746,0.796610169
0.838983051,0.830508475,0.814618644,0.805084746,0.796610169,0.793432203
0.830508475,0.814618644,0.805084746,0.796610169,0.793432203,0.778601695
0.814618644,0.805084746,0.796610169,0.793432203,0.778601695,0.771186441
0.805084746,0.796610169,0.793432203,0.778601695,0.771186441,0.768008475
0.796610169,0.793432203,0.778601695,0.771186441,0.768008475,0.761652542
0.793432203,0.778601695,0.771186441,0.768008475,0.761652542,0.754237288
0.778601695,0.771186441,0.768008475,0.761652542,0.754237288,0.751059322
0.771186441,0.768008475,0.761652542,0.754237288,0.751059322,0.745762712
0.768008475,0.761652542,0.754237288,0.751059322,0.745762712,0.746822034
0.761652542,0.754237288,0.751059322,0.745762712,0.746822034,0.74470339
0.754237288,0.751059322,0.745762712,0.746822034,0.74470339,0.743644068
0.751059322,0.745762712,0.746822034,0.74470339,0.743644068,0.737288136
0.745762712,0.746822034,0.74470339,0.743644068,0.737288136,0.737288136
0.746822034,0.74470339,0.743644068,0.737288136,0.737288136,0.734110169
0.74470339,0.743644068,0.737288136,0.737288136,0.734110169,0.737288136
0.743644068,0.737288136,0.737288136,0.734110169,0.737288136,0.736228814
0.737288136,0.737288136,0.734110169,0.737288136,0.736228814,0.736228814
0.737288136,0.734110169,0.737288136,0.736228814,0.736228814,0.740466102
0.734110169,0.737288136,0.736228814,0.736228814,0.740466102,0.73940678
0.737288136,0.736228814,0.736228814,0.740466102,0.73940678,0.743644068
0.736228814,0.736228814,0.740466102,0.73940678,0.743644068,0.73940678
0.736228814,0.740466102,0.73940678,0.743644068,0.73940678,0.740466102
0.740466102,0.73940678,0.743644068,0.73940678,0.740466102,0.742584746
0.73940678,0.743644068,0.73940678,0.740466102,0.742584746,0.743644068
0.743644068,0.73940678,0.740466102,0.742584746,0.743644068,0.741525424
0.73940678,0.740466102,0.742584746,0.743644068,0.741525424,0.737288136
0.740466102,0.742584746,0.743644068,0.741525424,0.737288136,0.737288136
0.742584746,0.743644068,0.741525424,0.737288136,0.737288136,0.743644068
0.743644068,0.741525424,0.737288136,0.737288136,0.743644068,0.741525424
0.741525424,0.737288136,0.737288136,0.743644068,0.741525424,0.735169492
0.737288136,0.737288136,0.743644068,0.741525424,0.735169492,0.738347458
0.737288136,0.743644068,0.741525424,0.735169492,0.738347458,0.737288136
0.743644068,0.741525424,0.735169492,0.738347458,0.737288136,0.742584746
0.741525424,0.735169492,0.738347458,0.737288136,0.742584746,0.736228814
0.735169492,0.738347458,0.737288136,0.742584746,0.736228814,0.741525424
0.738347458,0.737288136,0.742584746,0.736228814,0.741525424,0.740466102
0.737288136,0.742584746,0.736228814,0.741525424,0.740466102,0.741525424
0.742584746,0.736228814,0.741525424,0.740466102,0.741525424,0.735169492
0.736228814,0.741525424,0.740466102,0.741525424,0.735169492,0.733050847
0.741525424,0.740466102,0.741525424,0.735169492,0.733050847,0.733050847
0.740466102,0.741525424,0.735169492,0.733050847,0.733050847,0.731991525
0.741525424,0.735169492,0.733050847,0.733050847,0.731991525,0.730932203
0.735169492,0.733050847,0.733050847,0.731991525,0.730932203,0.733050847
0.733050847,0.733050847,0.731991525,0.730932203,0.733050847,0.727754237
0.733050847,0.731991525,0.730932203,0.733050847,0.727754237,0.731991525
0.731991525,0.730932203,0.733050847,0.727754237,0.731991525,0.728813559
0.730932203,0.733050847,0.727754237,0.731991525,0.728813559,0.728813559
0.733050847,0.727754237,0.731991525,0.728813559,0.728813559,0.728813559
0.727754237,0.731991525,0.728813559,0.728813559,0.728813559,0.724576271
0.731991525,0.728813559,0.728813559,0.728813559,0.724576271,0.726694915
0.728813559,0.728813559,0.728813559,0.724576271,0.726694915,0.728813559
0.728813559,0.728813559,0.724576271,0.726694915,0.728813559,0.721398305
0.728813559,0.724576271,0.726694915,0.728813559,0.721398305,0.725635593
0.724576271,0.726694915,0.728813559,0.721398305,0.725635593,0.721398305
0.726694915,0.728813559,0.721398305,0.725635593,0.721398305,0.720338983
0.728813559,0.721398305,0.725635593,0.721398305,0.720338983,0.723516949
0.721398305,0.725635593,0.721398305,0.720338983,0.723516949,0.725635593
0.725635593,0.721398305,0.720338983,0.723516949,0.725635593,0.725635593
0.721398305,0.720338983,0.723516949,0.725635593,0.725635593,0.722457627
0.720338983,0.723516949,0.725635593,0.725635593,0.722457627,0.721398305
0.723516949,0.725635593,0.725635593,0.722457627,0.721398305,0.720338983
0.725635593,0.725635593,0.722457627,0.721398305,0.720338983,0.722457627
0.725635593,0.722457627,0.721398305,0.720338983,0.722457627,0.720338983
0.722457627,0.721398305,0.720338983,0.722457627,0.720338983,0.724576271
0.721398305,0.720338983,0.722457627,0.720338983,0.724576271,0.722457627
0.720338983,0.722457627,0.720338983,0.724576271,0.722457627,0.730932203
0.722457627,0.720338983,0.724576271,0.722457627,0.730932203,0.728813559
0.720338983,0.724576271,0.722457627,0.730932203,0.728813559,0.730932203
0.724576271,0.722457627,0.730932203,0.728813559,0.730932203,0.735169492
0.722457627,0.730932203,0.728813559,0.730932203,0.735169492,0.734110169
0.730932203,0.728813559,0.730932203,0.735169492,0.734110169,0.743644068
0.728813559,0.730932203,0.735169492,0.734110169,0.743644068,0.746822034
0.730932203,0.735169492,0.734110169,0.743644068,0.746822034,0.751059322
0.735169492,0.734110169,0.743644068,0.746822034,0.751059322,0.752118644
0.734110169,0.743644068,0.746822034,0.751059322,0.752118644,0.752118644
0.743644068,0.746822034,0.751059322,0.752118644,0.752118644,0.75
0.746822034,0.751059322,0.752118644,0.752118644,0.75,0.746822034
0.751059322,0.752118644,0.752118644,0.75,0.746822034,0.74470339
0.752118644,0.752118644,0.75,0.746822034,0.74470339,0.741525424
0.752118644,0.75,0.746822034,0.74470339,0.741525424,0.731991525
0.75,0.746822034,0.74470339,0.741525424,0.731991525,0.731991525
0.746822034,0.74470339,0.741525424,0.731991525,0.731991525,0.727754237
0.74470339,0.741525424,0.731991525,0.731991525,0.727754237,0.729872881
0.741525424,0.731991525,0.731991525,0.727754237,0.729872881,0.729872881
0.731991525,0.731991525,0.727754237,0.729872881,0.729872881,0.723516949
0.731991525,0.727754237,0.729872881,0.729872881,0.723516949,0.723516949
0.727754237,0.729872881,0.729872881,0.723516949,0.723516949,0.717161017
0.729872881,0.729872881,0.723516949,0.723516949,0.717161017,0.720338983
0.729872881,0.723516949,0.723516949,0.717161017,0.720338983,0.721398305
0.723516949,0.723516949,0.717161017,0.720338983,0.721398305,0.720338983
0.723516949,0.717161017,0.720338983,0.721398305,0.720338983,0.719279661
0.717161017,0.720338983,0.721398305,0.720338983,0.719279661,0.723516949
0.720338983,0.721398305,0.720338983,0.719279661,0.723516949,0.723516949
0.721398305,0.720338983,0.719279661,0.723516949,0.723516949,0.721398305
0.720338983,0.719279661,0.723516949,0.723516949,0.721398305,0.720338983
0.719279661,0.723516949,0.723516949,0.721398305,0.720338983,0.720338983
0.723516949,0.723516949,0.721398305,0.720338983,0.720338983,0.721398305
0.723516949,0.721398305,0.720338983,0.720338983,0.721398305,0.715042373
0.721398305,0.720338983,0.720338983,0.721398305,0.715042373,0.715042373
0.720338983,0.720338983,0.721398305,0.715042373,0.715042373,0.717161017
0.720338983,0.721398305,0.715042373,0.715042373,0.717161017,0.720338983
0.721398305,0.715042373,0.715042373,0.717161017,0.720338983,0.720338983
0.715042373,0.715042373,0.717161017,0.720338983,0.720338983,0.721398305
0.715042373,0.717161017,0.720338983,0.720338983,0.721398305,0.720338983
0.717161017,0.720338983,0.720338983,0.721398305,0.720338983,0.721398305
0.720338983,0.720338983,0.721398305,0.720338983,0.721398305,0.720338983
0.720338983,0.721398305,0.720338983,0.721398305,0.720338983,0.719279661
0.721398305,0.720338983,0.721398305,0.720338983,0.719279661,0.719279661
0.720338983,0.721398305,0.720338983,0.719279661,0.719279661,0.721398305
0.721398305,0.720338983,0.719279661,0.719279661,0.721398305,0.723516949
0.720338983,0.719279661,0.719279661,0.721398305,0.723516949,0.721398305
0.719279661,0.719279661,0.721398305,0.723516949,0.721398305,0.715042373
0.719279661,0.721398305,0.723516949,0.721398305,0.715042373,0.713983051
0.721398305,0.723516949,0.721398305,0.715042373,0.713983051,0.719279661
0.723516949,0.721398305,0.715042373,0.713983051,0.719279661,0.718220339
0.721398305,0.715042373,0.713983051,0.719279661,0.718220339,0.713983051
0.715042373,0.713983051,0.719279661,0.718220339,0.713983051,0.718220339
0.713983051,0.719279661,0.718220339,0.713983051,0.718220339,0.713983051
0.719279661,0.718220339,0.713983051,0.718220339,0.713983051,0.708686441
0.718220339,0.713983051,0.718220339,0.713983051,0.708686441,0.705508475
0.713983051,0.718220339,0.713983051,0.708686441,0.705508475,0.706567797
0.718220339,0.713983051,0.708686441,0.705508475,0.706567797,0.706567797
0.713983051,0.708686441,0.705508475,0.706567797,0.706567797,0.693855932
0.708686441,0.705508475,0.706567797,0.706567797,0.693855932,0.637711864
0.705508475,0.706567797,0.706567797,0.693855932,0.637711864,0.521186441
0.706567797,0.706567797,0.693855932,0.637711864,0.521186441,0.38559322
0.706567797,0.693855932,0.637711864,0.521186441,0.38559322,0.253177966
0.693855932,0.637711864,0.521186441,0.38559322,0.253177966,0.18220339
0.637711864,0.521186441,0.38559322,0.253177966,0.18220339,0.144067797
0.521186441,0.38559322,0.253177966,0.18220339,0.144067797,0.134533898
0.38559322,0.253177966,0.18220339,0.144067797,0.134533898,0.122881356
0.253177966,0.18220339,0.144067797,0.134533898,0.122881356,0.117584746
0.18220339,0.144067797,0.134533898,0.122881356,0.117584746,0.117584746
0.144067797,0.134533898,0.122881356,0.117584746,0.117584746,0.128177966
0.134533898,0.122881356,0.117584746,0.117584746,0.128177966,0.154661017
0.122881356,0.117584746,0.117584746,0.128177966,0.154661017,0.186440678
0.117584746,0.117584746,0.128177966,0.154661017,0.186440678,0.236228814
0.117584746,0.128177966,0.154661017,0.186440678,0.236228814,0.264830508
0.128177966,0.154661017,0.186440678,0.236228814,0.264830508,0.286016949
0.154661017,0.186440678,0.236228814,0.264830508,0.286016949,0.30720339
0.186440678,0.236228814,0.264830508,0.286016949,0.30720339,0.341101695
0.236228814,0.264830508,0.286016949,0.30720339,0.341101695,0.397245763
0.264830508,0.286016949,0.30720339,0.341101695,0.397245763,0.459745763
0.286016949,0.30720339,0.341101695,0.397245763,0.459745763,0.527542373
0.30720339,0.341101695,0.397245763,0.459745763,0.527542373,0.579449153
0.341101695,0.397245763,0.459745763,0.527542373,0.579449153,0.621822034
0.397245763,0.459745763,0.527542373,0.579449153,0.621822034,0.645127119
0.459745763,0.527542373,0.579449153,0.621822034,0.645127119,0.674788136
0.527542373,0.579449153,0.621822034,0.645127119,0.674788136,0.702330508
0.579449153,0.621822034,0.645127119,0.674788136,0.702330508,0.733050847
0.621822034,0.645127119,0.674788136,0.702330508,0.733050847,0.763771186
0.645127119,0.674788136,0.702330508,0.733050847,0.763771186,0.788135593
0.674788136,0.702330508,0.733050847,0.763771186,0.788135593,0.793432203
0.702330508,0.733050847,0.763771186,0.788135593,0.793432203,0.800847458
0.733050847,0.763771186,0.788135593,0.793432203,0.800847458,0.800847458
0.763771186,0.788135593,0.793432203,0.800847458,0.800847458,0.796610169
0.788135593,0.793432203,0.800847458,0.800847458,0.796610169,0.805084746
0.793432203,0.800847458,0.800847458,0.796610169,0.805084746,0.805084746
0.800847458,0.800847458,0.796610169,0.805084746,0.805084746,0.805084746
0.800847458,0.796610169,0.805084746,0.805084746,0.805084746,0.80720339
0.796610169,0.805084746,0.805084746,0.805084746,0.80720339,0.80720339
0.805084746,0.805084746,0.805084746,0.80720339,0.80720339,0.80720339
0.805084746,0.805084746,0.80720339,0.80720339,0.80720339,0.8125
0.805084746,0.80720339,0.80720339,0.80720339,0.8125,0.816737288
0.80720339,0.80720339,0.80720339,0.8125,0.816737288,0.815677966
0.80720339,0.80720339,0.8125,0.816737288,0.815677966,0.818855932
0.80720339,0.8125,0.816737288,0.815677966,0.818855932,0.825211864
0.8125,0.816737288,0.815677966,0.818855932,0.825211864,0.819915254
0.816737288,0.815677966,0.818855932,0.825211864,0.819915254,0.824152542
0.815677966,0.818855932,0.825211864,0.819915254,0.824152542,0.824152542
0.818855932,0.825211864,0.819915254,0.824152542,0.824152542,0.827330508
0.825211864,0.819915254,0.824152542,0.824152542,0.827330508,0.828389831
0.819915254,0.824152542,0.824152542,0.827330508,0.828389831,0.834745763
0.824152542,0.824152542,0.827330508,0.828389831,0.834745763,0.832627119
0.824152542,0.827330508,0.828389831,0.834745763,0.832627119,0.834745763
0.827330508,0.828389831,0.834745763,0.832627119,0.834745763,0.837923729
0.828389831,0.834745763,0.832627119,0.834745763,0.837923729,0.838983051
0.834745763,0.832627119,0.834745763,0.837923729,0.838983051,0.837923729
0.832627119,0.834745763,0.837923729,0.838983051,0.837923729,0.845338983
0.834745763,0.837923729,0.838983051,0.837923729,0.845338983,0.843220339
0.837923729,0.838983051,0.837923729,0.845338983,0.843220339,0.848516949
0.838983051,0.837923729,0.845338983,0.843220339,0.848516949,0.853813559
0.837923729,0.845338983,0.843220339,0.848516949,0.853813559,0.860169492
0.845338983,0.843220339,0.848516949,0.853813559,0.860169492,0.856991525
0.843220339,0.848516949,0.853813559,0.860169492,0.856991525,0.862288136
0.848516949,0.853813559,0.860169492,0.856991525,0.862288136,0.863347458
0.853813559,0.860169492,0.856991525,0.862288136,0.863347458,0.867584746
0.860169492,0.856991525,0.862288136,0.863347458,0.867584746,0.86970339
0.856991525,0.862288136,0.863347458,0.867584746,0.86970339,0.872881356
0.862288136,0.863347458,0.867584746,0.86970339,0.872881356,0.875
0.863347458,0.867584746,0.86970339,0.872881356,0.875,0.882415254
0.867584746,0.86970339,0.872881356,0.875,0.882415254,0.884533898
0.86970339,0.872881356,0.875,0.882415254,0.884533898,0.887711864
0.872881356,0.875,0.882415254,0.884533898,0.887711864,0.895127119
0.875,0.882415254,0.884533898,0.887711864,0.895127119,0.898305085
0.882415254,0.884533898,0.887711864,0.895127119,0.898305085,0.899364407
0.884533898,0.887711864,0.895127119,0.898305085,0.899364407,0.898305085
0.887711864,0.895127119,0.898305085,0.899364407,0.898305085,0.905720339
0.895127119,0.898305085,0.899364407,0.898305085,0.905720339,0.909957627
0.898305085,0.899364407,0.898305085,0.905720339,0.909957627,0.916313559
0.899364407,0.898305085,0.905720339,0.909957627,0.916313559,0.919491525
0.898305085,0.905720339,0.909957627,0.916313559,0.919491525,0.922669492
0.905720339,0.909957627,0.916313559,0.919491525,0.922669492,0.922669492
0.909957627,0.916313559,0.919491525,0.922669492,0.922669492,0.92690678
0.916313559,0.919491525,0.922669492,0.922669492,0.92690678,0.923728814
0.919491525,0.922669492,0.922669492,0.92690678,0.923728814,0.924788136
0.922669492,0.922669492,0.92690678,0.923728814,0.924788136,0.930084746
0.922669492,0.92690678,0.923728814,0.924788136,0.930084746,0.930084746
0.92690678,0.923728814,0.924788136,0.930084746,0.930084746,0.933262712
0.923728814,0.924788136,0.930084746,0.930084746,0.933262712,0.939618644
0.924788136,0.930084746,0.930084746,0.933262712,0.939618644,0.9375
0.930084746,0.930084746,0.933262712,0.939618644,0.9375,0.935381356
0.930084746,0.933262712,0.939618644,0.9375,0.935381356,0.933262712
0.933262712,0.939618644,0.9375,0.935381356,0.933262712,0.931144068
0.939618644,0.9375,0.935381356,0.933262712,0.931144068,0.930084746
0.9375,0.935381356,0.933262712,0.931144068,0.930084746,0.92690678
0.935381356,0.933262712,0.931144068,0.930084746,0.92690678,0.924788136
0.933262712,0.931144068,0.930084746,0.92690678,0.924788136,0.920550847
0.931144068,0.930084746,0.92690678,0.924788136,0.920550847,0.914194915
0.930084746,0.92690678,0.924788136,0.920550847,0.914194915,0.909957627
0.92690678,0.924788136,0.920550847,0.914194915,0.909957627,0.907838983
0.924788136,0.920550847,0.914194915,0.909957627,0.907838983,0.894067797
0.920550847,0.914194915,0.909957627,0.907838983,0.894067797,0.888771186
0.914194915,0.909957627,0.907838983,0.894067797,0.888771186,0.882415254
0.909957627,0.907838983,0.894067797,0.888771186,0.882415254,0.871822034
0.907838983,0.894067797,0.888771186,0.882415254,0.871822034,0.86440678
0.894067797,0.888771186,0.882415254,0.871822034,0.86440678,0.854872881
0.888771186,0.882415254,0.871822034,0.86440678,0.854872881,0.844279661
0.882415254,0.871822034,0.86440678,0.854872881,0.844279661,0.835805085
0.871822034,0.86440678,0.854872881,0.844279661,0.835805085,0.822033898
0.86440678,0.854872881,0.844279661,0.835805085,0.822033898,0.815677966
0.854872881,0.844279661,0.835805085,0.822033898,0.815677966,0.804025424
0.844279661,0.835805085,0.822033898,0.815677966,0.804025424,0.794491525
0.835805085,0.822033898,0.815677966,0.804025424,0.794491525,0.792372881
0.822033898,0.815677966,0.804025424,0.794491525,0.792372881,0.780720339
0.815677966,0.804025424,0.794491525,0.792372881,0.780720339,0.774364407
0.804025424,0.794491525,0.792372881,0.780720339,0.774364407,0.772245763
0.794491525,0.792372881,0.780720339,0.774364407,0.772245763,0.768008475
0.792372881,0.780720339,0.774364407,0.772245763,0.768008475,0.759533898
0.780720339,0.774364407,0.772245763,0.768008475,0.759533898,0.76059322
0.774364407,0.772245763,0.768008475,0.759533898,0.76059322,0.754237288
0.772245763,0.768008475,0.759533898,0.76059322,0.754237288,0.756355932
0.768008475,0.759533898,0.76059322,0.754237288,0.756355932,0.75529661
0.759533898,0.76059322,0.754237288,0.756355932,0.75529661,0.753177966
0.76059322,0.754237288,0.756355932,0.75529661,0.753177966,0.75
0.754237288,0.756355932,0.75529661,0.753177966,0.75,0.75
0.756355932,0.75529661,0.753177966,0.75,0.75,0.754237288
0.75529661,0.753177966,0.75,0.75,0.754237288,0.75529661
0.753177966,0.75,0.75,0.754237288,0.75529661,0.75529661
0.75,0.75,0.754237288,0.75529661,0.75529661,0.745762712
0.75,0.754237288,0.75529661,0.75529661,0.745762712,0.751059322
0.754237288,0.75529661,0.75529661,0.745762712,0.751059322,0.752118644
0.75529661,0.75529661,0.745762712,0.751059322,0.752118644,0.754237288
0.75529661,0.745762712,0.751059322,0.752118644,0.754237288,0.751059322
0.745762712,0.751059322,0.752118644,0.754237288,0.751059322,0.754237288
0.751059322,0.752118644,0.754237288,0.751059322,0.754237288,0.754237288
0.752118644,0.754237288,0.751059322,0.754237288,0.754237288,0.753177966
0.754237288,0.751059322,0.754237288,0.754237288,0.753177966,0.751059322
0.751059322,0.754237288,0.754237288,0.753177966,0.751059322,0.754237288
0.754237288,0.754237288,0.753177966,0.751059322,0.754237288,0.757415254
0.754237288,0.753177966,0.751059322,0.754237288,0.757415254,0.754237288
0.753177966,0.751059322,0.754237288,0.757415254,0.754237288,0.757415254
0.751059322,0.754237288,0.757415254,0.754237288,0.757415254,0.757415254
0.754237288,0.757415254,0.754237288,0.757415254,0.757415254,0.76059322
0.757415254,0.754237288,0.757415254,0.757415254,0.76059322,0.754237288
0.754237288,0.757415254,0.757415254,0.76059322,0.754237288,0.753177966
0.757415254,0.757415254,0.76059322,0.754237288,0.753177966,0.751059322
